# log10(T) rate(cm^3/s)
# ColRates
3.500000000000000000e+00 3.349569999999999885e-31
3.520000000000000018e+00 3.783369999999999695e-30
3.540000000000000036e+00 3.833940000000000122e-29
3.560000000000000053e+00 3.502849999999999853e-28
3.580000000000000071e+00 2.898960000000000033e-27
3.600000000000000089e+00 2.182949999999999938e-26
3.620000000000000107e+00 1.502039999999999990e-25
3.640000000000000124e+00 9.482509999999999811e-25
3.660000000000000142e+00 5.513959999999999706e-24
3.680000000000000160e+00 2.964209999999999992e-23
3.700000000000000178e+00 1.478449999999999908e-22
3.720000000000000195e+00 6.864729999999999594e-22
3.740000000000000213e+00 2.976889999999999840e-21
3.759999999999999787e+00 1.209399999999999957e-20
3.779999999999999805e+00 4.616590000000000023e-20
3.799999999999999822e+00 1.660479999999999888e-19
3.819999999999999840e+00 5.642790000000000001e-19
3.839999999999999858e+00 1.816309999999999852e-18
3.859999999999999876e+00 5.551539999999999813e-18
3.879999999999999893e+00 1.614930000000000080e-17
3.899999999999999911e+00 4.481270000000000191e-17
3.919999999999999929e+00 1.188699999999999969e-16
3.939999999999999947e+00 3.020349999999999864e-16
3.959999999999999964e+00 7.365369999999999813e-16
3.979999999999999982e+00 1.727000000000000058e-15
4.000000000000000000e+00 3.900530000000000294e-15
4.019999999999999574e+00 8.500089999999999642e-15
4.040000000000000036e+00 1.790130000000000080e-14
4.059999999999999609e+00 3.649139999999999812e-14
4.080000000000000071e+00 7.210529999999999569e-14
4.099999999999999645e+00 1.383039999999999881e-13
4.120000000000000107e+00 2.578570000000000088e-13
4.139999999999999680e+00 4.679010000000000275e-13
4.160000000000000142e+00 8.273409999999999580e-13
4.179999999999999716e+00 1.427200000000000018e-12
4.200000000000000178e+00 2.404589999999999955e-12
4.219999999999999751e+00 3.961120000000000392e-12
4.240000000000000213e+00 6.298890000000000033e-12
4.259999999999999787e+00 9.821009999999999569e-12
4.280000000000000249e+00 1.505180000000000095e-11
4.299999999999999822e+00 2.268180000000000136e-11
4.320000000000000284e+00 3.361969999999999739e-11
4.339999999999999858e+00 4.903390000000000011e-11
4.360000000000000320e+00 7.040310000000000321e-11
4.379999999999999893e+00 9.955790000000000576e-11
4.400000000000000355e+00 1.387290000000000128e-10
4.419999999999999929e+00 1.905800000000000026e-10
4.440000000000000391e+00 2.582479999999999958e-10
4.459999999999999964e+00 3.453560000000000014e-10
4.480000000000000426e+00 4.560299999999999752e-10
4.500000000000000000e+00 5.948810000000000264e-10
4.519999999999999574e+00 7.670159999999999702e-10
4.540000000000000036e+00 9.779550000000000624e-10
4.559999999999999609e+00 1.233630000000000009e-09
4.580000000000000071e+00 1.540299999999999944e-09
4.599999999999999645e+00 1.904449999999999974e-09
4.620000000000000107e+00 2.332730000000000071e-09
4.639999999999999680e+00 2.831860000000000186e-09
4.660000000000000142e+00 3.408520000000000137e-09
4.679999999999999716e+00 4.069219999999999727e-09
4.700000000000000178e+00 4.820179999999999789e-09
4.719999999999999751e+00 5.667300000000000065e-09
4.740000000000000213e+00 6.616020000000000072e-09
4.769999999999999574e+00 7.671159999999999388e-09
4.790000000000000036e+00 8.836899999999999542e-09
4.809999999999999609e+00 1.011669999999999920e-08
4.830000000000000071e+00 1.151340000000000038e-08
4.849999999999999645e+00 1.302860000000000028e-08
4.870000000000000107e+00 1.466349999999999925e-08
4.889999999999999680e+00 1.641810000000000062e-08
4.910000000000000142e+00 1.829169999999999961e-08
4.929999999999999716e+00 2.028249999999999980e-08
4.950000000000000178e+00 2.238789999999999959e-08
4.969999999999999751e+00 2.460450000000000039e-08
4.990000000000000213e+00 2.692830000000000099e-08
5.009999999999999787e+00 2.935390000000000055e-08
5.030000000000000249e+00 3.187600000000000035e-08
5.049999999999999822e+00 3.448799999999999754e-08
5.070000000000000284e+00 3.718310000000000160e-08
5.089999999999999858e+00 3.995379999999999742e-08
5.110000000000000320e+00 4.279229999999999997e-08
5.129999999999999893e+00 4.569040000000000261e-08
5.150000000000000355e+00 4.863960000000000231e-08
5.169999999999999929e+00 5.163109999999999968e-08
5.190000000000000391e+00 5.465629999999999954e-08
5.209999999999999964e+00 5.770619999999999828e-08
5.230000000000000426e+00 6.077190000000000435e-08
5.250000000000000000e+00 6.384460000000000512e-08
5.269999999999999574e+00 6.691569999999999879e-08
5.290000000000000036e+00 6.997679999999999435e-08
5.309999999999999609e+00 7.301960000000000622e-08
5.330000000000000071e+00 7.603599999999999344e-08
5.349999999999999645e+00 7.901850000000000046e-08
5.370000000000000107e+00 8.196000000000000070e-08
5.389999999999999680e+00 8.485339999999999403e-08
5.410000000000000142e+00 8.769230000000000498e-08
5.429999999999999716e+00 9.047059999999999486e-08
5.450000000000000178e+00 9.318279999999999714e-08
5.469999999999999751e+00 9.582360000000000316e-08
5.490000000000000213e+00 9.838829999999999700e-08
5.509999999999999787e+00 1.008730000000000060e-07
5.530000000000000249e+00 1.032730000000000010e-07
5.549999999999999822e+00 1.055860000000000033e-07
5.570000000000000284e+00 1.078079999999999950e-07
5.589999999999999858e+00 1.099370000000000003e-07
5.610000000000000320e+00 1.119700000000000027e-07
5.629999999999999893e+00 1.139070000000000021e-07
5.650000000000000355e+00 1.157449999999999952e-07
5.669999999999999929e+00 1.174839999999999951e-07
5.690000000000000391e+00 1.191219999999999995e-07
5.709999999999999964e+00 1.206599999999999965e-07
5.730000000000000426e+00 1.220960000000000102e-07
5.750000000000000000e+00 1.234319999999999898e-07
5.769999999999999574e+00 1.246679999999999885e-07
5.790000000000000036e+00 1.258040000000000060e-07
5.809999999999999609e+00 1.268419999999999919e-07
5.830000000000000071e+00 1.277809999999999979e-07
5.849999999999999645e+00 1.286240000000000009e-07
5.870000000000000107e+00 1.293720000000000020e-07
5.889999999999999680e+00 1.300270000000000036e-07
5.910000000000000142e+00 1.305890000000000055e-07
5.929999999999999716e+00 1.310620000000000125e-07
5.950000000000000178e+00 1.314459999999999979e-07
5.969999999999999751e+00 1.317449999999999929e-07
5.990000000000000213e+00 1.319599999999999984e-07
6.009999999999999787e+00 1.320929999999999904e-07
6.030000000000000249e+00 1.321469999999999987e-07
6.049999999999999822e+00 1.321239999999999991e-07
6.070000000000000284e+00 1.320259999999999939e-07
6.089999999999999858e+00 1.318560000000000129e-07
6.110000000000000320e+00 1.316170000000000065e-07
6.129999999999999893e+00 1.313110000000000037e-07
6.150000000000000355e+00 1.309400000000000065e-07
6.169999999999999929e+00 1.305069999999999920e-07
6.190000000000000391e+00 1.300149999999999900e-07
6.209999999999999964e+00 1.294660000000000027e-07
6.230000000000000426e+00 1.288630000000000072e-07
6.250000000000000000e+00 1.282070000000000045e-07
6.269999999999999574e+00 1.275030000000000003e-07
6.290000000000000036e+00 1.267509999999999946e-07
6.309999999999999609e+00 1.259549999999999920e-07
6.330000000000000071e+00 1.251169999999999947e-07
6.349999999999999645e+00 1.242390000000000049e-07
6.370000000000000107e+00 1.233239999999999997e-07
6.389999999999999680e+00 1.223740000000000078e-07
6.410000000000000142e+00 1.213910000000000048e-07
6.429999999999999716e+00 1.203759999999999921e-07
6.450000000000000178e+00 1.193330000000000006e-07
6.469999999999999751e+00 1.182640000000000060e-07
6.490000000000000213e+00 1.171689999999999952e-07
6.509999999999999787e+00 1.160519999999999992e-07
6.530000000000000249e+00 1.149130000000000047e-07
6.549999999999999822e+00 1.137550000000000018e-07
6.570000000000000284e+00 1.125790000000000051e-07
6.589999999999999858e+00 1.113870000000000034e-07
6.610000000000000320e+00 1.101809999999999991e-07
6.629999999999999893e+00 1.089610000000000054e-07
6.650000000000000355e+00 1.077289999999999980e-07
6.669999999999999929e+00 1.064870000000000059e-07
6.690000000000000391e+00 1.052360000000000034e-07
6.709999999999999964e+00 1.039770000000000052e-07
6.730000000000000426e+00 1.027099999999999979e-07
6.750000000000000000e+00 1.014379999999999982e-07
6.769999999999999574e+00 1.001610000000000060e-07
6.790000000000000036e+00 9.888069999999999418e-08
6.809999999999999609e+00 9.759699999999999705e-08
6.830000000000000071e+00 9.631120000000000548e-08
6.849999999999999645e+00 9.502409999999999656e-08
6.870000000000000107e+00 9.373650000000000030e-08
6.889999999999999680e+00 9.244910000000000163e-08
6.910000000000000142e+00 9.116250000000000650e-08
6.929999999999999716e+00 8.987750000000000525e-08
6.950000000000000178e+00 8.859450000000000627e-08
6.969999999999999751e+00 8.731440000000000528e-08
6.990000000000000213e+00 8.603750000000000528e-08
7.009999999999999787e+00 8.476439999999999899e-08
7.030000000000000249e+00 8.349570000000000564e-08
7.049999999999999822e+00 8.223170000000000173e-08
7.070000000000000284e+00 8.097300000000000648e-08
7.089999999999999858e+00 7.972000000000000181e-08
7.110000000000000320e+00 7.847320000000000153e-08
7.129999999999999893e+00 7.723300000000000079e-08
7.150000000000000355e+00 7.599970000000000257e-08
7.169999999999999929e+00 7.477379999999999422e-08
7.190000000000000391e+00 7.355569999999999736e-08
7.209999999999999964e+00 7.234559999999999634e-08
7.230000000000000426e+00 7.114400000000000496e-08
7.259999999999999787e+00 6.995109999999999432e-08
7.280000000000000249e+00 6.876749999999999688e-08
7.299999999999999822e+00 6.759330000000000480e-08
7.320000000000000284e+00 6.642879999999999461e-08
7.339999999999999858e+00 6.527440000000000116e-08
7.360000000000000320e+00 6.413029999999999556e-08
7.379999999999999893e+00 6.299689999999999946e-08
7.400000000000000355e+00 6.187439999999999718e-08
7.419999999999999929e+00 6.076299999999999955e-08
7.440000000000000391e+00 5.966310000000000173e-08
7.459999999999999964e+00 5.857480000000000250e-08
7.480000000000000426e+00 5.749829999999999944e-08
7.500000000000000000e+00 5.643390000000000217e-08
7.519999999999999574e+00 5.538180000000000163e-08
7.540000000000000036e+00 5.434210000000000325e-08
7.559999999999999609e+00 5.331509999999999676e-08
7.580000000000000071e+00 5.230080000000000203e-08
7.599999999999999645e+00 5.129939999999999679e-08
7.620000000000000107e+00 5.031109999999999845e-08
7.639999999999999680e+00 4.933599999999999920e-08
7.660000000000000142e+00 4.837419999999999783e-08
7.679999999999999716e+00 4.742570000000000095e-08
7.700000000000000178e+00 4.649069999999999953e-08
7.719999999999999751e+00 4.556920000000000018e-08
7.740000000000000213e+00 4.466130000000000169e-08
7.759999999999999787e+00 4.376699999999999744e-08
7.780000000000000249e+00 4.288630000000000068e-08
7.799999999999999822e+00 4.201929999999999696e-08
7.820000000000000284e+00 4.116590000000000071e-08
7.839999999999999858e+00 4.032609999999999871e-08
7.860000000000000320e+00 3.950000000000000298e-08
7.879999999999999893e+00 3.868750000000000149e-08
7.900000000000000355e+00 3.788860000000000087e-08
7.919999999999999929e+00 3.710309999999999691e-08
7.940000000000000391e+00 3.633110000000000165e-08
7.959999999999999964e+00 3.557239999999999764e-08
7.980000000000000426e+00 3.482699999999999812e-08
8.000000000000000000e+00 3.409490000000000310e-08
8.019999999999999574e+00 3.337580000000000297e-08
8.039999999999999147e+00 3.266969999999999773e-08
8.060000000000000497e+00 3.197650000000000182e-08
8.080000000000000071e+00 3.129610000000000321e-08
8.099999999999999645e+00 3.062840000000000313e-08
8.119999999999999218e+00 2.997319999999999737e-08
8.140000000000000568e+00 2.933030000000000159e-08
8.160000000000000142e+00 2.869969999999999923e-08
8.179999999999999716e+00 2.808119999999999935e-08
8.199999999999999289e+00 2.747469999999999985e-08
8.220000000000000639e+00 2.687999999999999982e-08
8.240000000000000213e+00 2.629689999999999839e-08
8.259999999999999787e+00 2.572539999999999887e-08
8.279999999999999361e+00 2.516520000000000157e-08
8.300000000000000711e+00 2.461620000000000108e-08
8.320000000000000284e+00 2.407810000000000105e-08
8.339999999999999858e+00 2.355100000000000025e-08
8.359999999999999432e+00 2.303450000000000023e-08
8.380000000000000782e+00 2.252860000000000097e-08
8.400000000000000355e+00 2.203299999999999950e-08
8.419999999999999929e+00 2.154760000000000033e-08
8.439999999999999503e+00 2.107230000000000136e-08
8.460000000000000853e+00 2.060679999999999961e-08
8.480000000000000426e+00 2.015090000000000080e-08
8.500000000000000000e+00 1.970470000000000041e-08
