# log10(T) rate(cm^3/s)
# ColRates
3.500000000000000000e+00 1.259569999999999939e-29
3.520000000000000018e+00 1.225700000000000010e-28
3.540000000000000036e+00 1.077320000000000048e-27
3.560000000000000053e+00 8.592300000000000663e-27
3.580000000000000071e+00 6.245750000000000454e-26
3.600000000000000089e+00 4.155150000000000128e-25
3.620000000000000107e+00 2.540129999999999870e-24
3.640000000000000124e+00 1.432359999999999948e-23
3.660000000000000142e+00 7.477580000000000483e-23
3.680000000000000160e+00 3.626530000000000218e-22
3.700000000000000178e+00 1.639440000000000016e-21
3.720000000000000195e+00 6.930200000000000013e-21
3.740000000000000213e+00 2.747670000000000153e-20
3.759999999999999787e+00 1.024720000000000035e-19
3.779999999999999805e+00 3.604709999999999807e-19
3.799999999999999822e+00 1.199220000000000002e-18
3.819999999999999840e+00 3.782769999999999632e-18
3.839999999999999858e+00 1.134010000000000023e-17
3.859999999999999876e+00 3.238520000000000237e-17
3.879999999999999893e+00 8.829320000000000409e-17
3.899999999999999911e+00 2.302949999999999783e-16
3.919999999999999929e+00 5.758149999999999702e-16
3.939999999999999947e+00 1.382779999999999959e-15
3.959999999999999964e+00 3.195100000000000189e-15
3.979999999999999982e+00 7.115980000000000113e-15
4.000000000000000000e+00 1.530120000000000022e-14
4.019999999999999574e+00 3.181640000000000163e-14
4.040000000000000036e+00 6.407049999999999695e-14
4.059999999999999609e+00 1.251379999999999914e-13
4.080000000000000071e+00 2.373729999999999923e-13
4.099999999999999645e+00 4.378880000000000220e-13
4.120000000000000107e+00 7.865729999999999645e-13
4.139999999999999680e+00 1.377449999999999952e-12
4.160000000000000142e+00 2.354320000000000009e-12
4.179999999999999716e+00 3.931779999999999631e-12
4.200000000000000178e+00 6.394270000000000379e-12
4.219999999999999751e+00 1.007520000000000053e-11
4.240000000000000213e+00 1.560229999999999946e-11
4.259999999999999787e+00 2.375279999999999952e-11
4.280000000000000249e+00 3.556139999999999830e-11
4.299999999999999822e+00 5.237580000000000307e-11
4.320000000000000284e+00 7.592080000000000422e-11
4.339999999999999858e+00 1.083560000000000056e-10
4.360000000000000320e+00 1.523450000000000049e-10
4.379999999999999893e+00 2.110980000000000087e-10
4.400000000000000355e+00 2.884409999999999969e-10
4.419999999999999929e+00 3.888289999999999815e-10
4.440000000000000391e+00 5.173940000000000437e-10
4.459999999999999964e+00 6.799209999999999726e-10
4.480000000000000426e+00 8.828699999999999715e-10
4.500000000000000000e+00 1.133300000000000005e-09
4.519999999999999574e+00 1.438870000000000016e-09
4.540000000000000036e+00 1.807670000000000025e-09
4.559999999999999609e+00 2.248270000000000137e-09
4.580000000000000071e+00 2.769430000000000020e-09
4.599999999999999645e+00 3.380139999999999869e-09
4.620000000000000107e+00 4.089360000000000032e-09
4.639999999999999680e+00 4.905969999999999758e-09
4.660000000000000142e+00 5.838569999999999619e-09
4.679999999999999716e+00 6.895349999999999769e-09
4.700000000000000178e+00 8.083889999999999471e-09
4.719999999999999751e+00 9.411170000000000289e-09
4.740000000000000213e+00 1.088330000000000025e-08
4.769999999999999574e+00 1.250559999999999950e-08
4.790000000000000036e+00 1.428219999999999934e-08
4.809999999999999609e+00 1.621619999999999866e-08
4.830000000000000071e+00 1.830970000000000017e-08
4.849999999999999645e+00 2.056339999999999870e-08
4.870000000000000107e+00 2.297700000000000120e-08
4.889999999999999680e+00 2.554879999999999846e-08
4.910000000000000142e+00 2.827619999999999878e-08
4.929999999999999716e+00 3.115520000000000094e-08
4.950000000000000178e+00 3.418069999999999716e-08
4.969999999999999751e+00 3.734650000000000292e-08
4.990000000000000213e+00 4.064570000000000244e-08
5.009999999999999787e+00 4.407010000000000232e-08
5.030000000000000249e+00 4.761090000000000316e-08
5.049999999999999822e+00 5.125860000000000082e-08
5.070000000000000284e+00 5.500299999999999959e-08
5.089999999999999858e+00 5.883319999999999904e-08
5.110000000000000320e+00 6.273830000000000533e-08
5.129999999999999893e+00 6.670639999999999704e-08
5.150000000000000355e+00 7.072609999999999961e-08
5.169999999999999929e+00 7.478539999999999944e-08
5.190000000000000391e+00 7.887249999999999373e-08
5.209999999999999964e+00 8.297539999999999535e-08
5.230000000000000426e+00 8.708249999999999908e-08
5.250000000000000000e+00 9.118219999999999972e-08
5.269999999999999574e+00 9.526340000000000586e-08
5.290000000000000036e+00 9.931519999999999718e-08
5.309999999999999609e+00 1.033269999999999961e-07
5.330000000000000071e+00 1.072890000000000020e-07
5.349999999999999645e+00 1.111919999999999940e-07
5.370000000000000107e+00 1.150260000000000005e-07
5.389999999999999680e+00 1.187840000000000001e-07
5.410000000000000142e+00 1.224559999999999949e-07
5.429999999999999716e+00 1.260370000000000055e-07
5.450000000000000178e+00 1.295200000000000110e-07
5.469999999999999751e+00 1.328980000000000033e-07
5.490000000000000213e+00 1.361660000000000031e-07
5.509999999999999787e+00 1.393190000000000050e-07
5.530000000000000249e+00 1.423520000000000031e-07
5.549999999999999822e+00 1.452629999999999952e-07
5.570000000000000284e+00 1.480480000000000033e-07
5.589999999999999858e+00 1.507039999999999974e-07
5.610000000000000320e+00 1.532290000000000018e-07
5.629999999999999893e+00 1.556209999999999878e-07
5.650000000000000355e+00 1.578800000000000082e-07
5.669999999999999929e+00 1.600040000000000079e-07
5.690000000000000391e+00 1.619929999999999868e-07
5.709999999999999964e+00 1.638469999999999980e-07
5.730000000000000426e+00 1.655669999999999896e-07
5.750000000000000000e+00 1.671529999999999881e-07
5.769999999999999574e+00 1.686059999999999945e-07
5.790000000000000036e+00 1.699270000000000101e-07
5.809999999999999609e+00 1.711180000000000107e-07
5.830000000000000071e+00 1.721809999999999984e-07
5.849999999999999645e+00 1.731180000000000021e-07
5.870000000000000107e+00 1.739309999999999975e-07
5.889999999999999680e+00 1.746210000000000123e-07
5.910000000000000142e+00 1.751929999999999992e-07
5.929999999999999716e+00 1.756480000000000122e-07
5.950000000000000178e+00 1.759890000000000018e-07
5.969999999999999751e+00 1.762199999999999990e-07
5.990000000000000213e+00 1.763420000000000050e-07
6.009999999999999787e+00 1.763599999999999990e-07
6.030000000000000249e+00 1.762770000000000107e-07
6.049999999999999822e+00 1.760949999999999896e-07
6.070000000000000284e+00 1.758189999999999943e-07
6.089999999999999858e+00 1.754499999999999994e-07
6.110000000000000320e+00 1.749940000000000117e-07
6.129999999999999893e+00 1.744520000000000060e-07
6.150000000000000355e+00 1.738299999999999889e-07
6.169999999999999929e+00 1.731289999999999881e-07
6.190000000000000391e+00 1.723530000000000081e-07
6.209999999999999964e+00 1.715060000000000006e-07
6.230000000000000426e+00 1.705909999999999954e-07
6.250000000000000000e+00 1.696119999999999970e-07
6.269999999999999574e+00 1.685710000000000078e-07
6.290000000000000036e+00 1.674720000000000057e-07
6.309999999999999609e+00 1.663179999999999941e-07
6.330000000000000071e+00 1.651120000000000031e-07
6.349999999999999645e+00 1.638570000000000094e-07
6.370000000000000107e+00 1.625569999999999911e-07
6.389999999999999680e+00 1.612140000000000035e-07
6.410000000000000142e+00 1.598299999999999959e-07
6.429999999999999716e+00 1.584100000000000004e-07
6.450000000000000178e+00 1.569539999999999905e-07
6.469999999999999751e+00 1.554669999999999984e-07
6.490000000000000213e+00 1.539499999999999988e-07
6.509999999999999787e+00 1.524059999999999950e-07
6.530000000000000249e+00 1.508369999999999894e-07
6.549999999999999822e+00 1.492450000000000106e-07
6.570000000000000284e+00 1.476330000000000091e-07
6.589999999999999858e+00 1.460020000000000126e-07
6.610000000000000320e+00 1.443539999999999968e-07
6.629999999999999893e+00 1.426919999999999916e-07
6.650000000000000355e+00 1.410169999999999981e-07
6.669999999999999929e+00 1.393299999999999910e-07
6.690000000000000391e+00 1.376329999999999990e-07
6.709999999999999964e+00 1.359289999999999991e-07
6.730000000000000426e+00 1.342169999999999901e-07
6.750000000000000000e+00 1.325000000000000019e-07
6.769999999999999574e+00 1.307780000000000081e-07
6.790000000000000036e+00 1.290540000000000120e-07
6.809999999999999609e+00 1.273270000000000125e-07
6.830000000000000071e+00 1.256000000000000130e-07
6.849999999999999645e+00 1.238729999999999870e-07
6.870000000000000107e+00 1.221469999999999886e-07
6.889999999999999680e+00 1.204229999999999925e-07
6.910000000000000142e+00 1.187009999999999986e-07
6.929999999999999716e+00 1.169839999999999972e-07
6.950000000000000178e+00 1.152699999999999992e-07
6.969999999999999751e+00 1.135619999999999948e-07
6.990000000000000213e+00 1.118599999999999971e-07
7.009999999999999787e+00 1.101640000000000063e-07
7.030000000000000249e+00 1.084759999999999981e-07
7.049999999999999822e+00 1.067949999999999978e-07
7.070000000000000284e+00 1.051220000000000065e-07
7.089999999999999858e+00 1.034590000000000002e-07
7.110000000000000320e+00 1.018040000000000029e-07
7.129999999999999893e+00 1.001600000000000048e-07
7.150000000000000355e+00 9.852650000000000547e-08
7.169999999999999929e+00 9.690379999999999452e-08
7.190000000000000391e+00 9.529250000000000444e-08
7.209999999999999964e+00 9.369309999999999609e-08
7.230000000000000426e+00 9.210600000000000433e-08
7.259999999999999787e+00 9.053170000000000326e-08
7.280000000000000249e+00 8.897060000000000128e-08
7.299999999999999822e+00 8.742300000000000137e-08
7.320000000000000284e+00 8.588929999999999870e-08
7.339999999999999858e+00 8.436999999999999382e-08
7.360000000000000320e+00 8.286529999999999756e-08
7.379999999999999893e+00 8.137569999999999724e-08
7.400000000000000355e+00 7.990140000000000369e-08
7.419999999999999929e+00 7.844269999999999341e-08
7.440000000000000391e+00 7.699989999999999587e-08
7.459999999999999964e+00 7.557340000000000623e-08
7.480000000000000426e+00 7.416330000000000341e-08
7.500000000000000000e+00 7.276990000000000366e-08
7.519999999999999574e+00 7.139340000000000453e-08
7.540000000000000036e+00 7.003409999999999579e-08
7.559999999999999609e+00 6.869209999999999609e-08
7.580000000000000071e+00 6.736769999999999516e-08
7.599999999999999645e+00 6.606080000000000084e-08
7.620000000000000107e+00 6.477179999999999505e-08
7.639999999999999680e+00 6.350070000000000427e-08
7.660000000000000142e+00 6.224759999999999420e-08
7.679999999999999716e+00 6.101270000000000211e-08
7.700000000000000178e+00 5.979589999999999614e-08
7.719999999999999751e+00 5.859730000000000154e-08
7.740000000000000213e+00 5.741699999999999725e-08
7.759999999999999787e+00 5.625500000000000312e-08
7.780000000000000249e+00 5.511129999999999931e-08
7.799999999999999822e+00 5.398580000000000025e-08
7.820000000000000284e+00 5.287859999999999812e-08
7.839999999999999858e+00 5.178960000000000074e-08
7.860000000000000320e+00 5.071880000000000150e-08
7.879999999999999893e+00 4.966610000000000161e-08
7.900000000000000355e+00 4.863129999999999687e-08
7.919999999999999929e+00 4.761449999999999931e-08
7.940000000000000391e+00 4.661549999999999810e-08
7.959999999999999964e+00 4.563420000000000109e-08
7.980000000000000426e+00 4.467039999999999745e-08
8.000000000000000000e+00 4.372410000000000042e-08
8.019999999999999574e+00 4.279500000000000039e-08
8.039999999999999147e+00 4.188309999999999736e-08
8.060000000000000497e+00 4.098810000000000159e-08
8.080000000000000071e+00 4.010990000000000105e-08
8.099999999999999645e+00 3.924829999999999815e-08
8.119999999999999218e+00 3.840329999999999952e-08
8.140000000000000568e+00 3.757439999999999796e-08
8.160000000000000142e+00 3.676150000000000132e-08
8.179999999999999716e+00 3.596449999999999756e-08
8.199999999999999289e+00 3.518309999999999693e-08
8.220000000000000639e+00 3.441720000000000064e-08
8.240000000000000213e+00 3.366649999999999908e-08
8.259999999999999787e+00 3.293080000000000130e-08
8.279999999999999361e+00 3.221000000000000189e-08
8.300000000000000711e+00 3.150360000000000027e-08
8.320000000000000284e+00 3.081170000000000187e-08
8.339999999999999858e+00 3.013379999999999948e-08
8.359999999999999432e+00 2.946989999999999974e-08
8.380000000000000782e+00 2.881960000000000086e-08
8.400000000000000355e+00 2.818280000000000074e-08
8.419999999999999929e+00 2.755929999999999850e-08
8.439999999999999503e+00 2.694880000000000107e-08
8.460000000000000853e+00 2.635099999999999886e-08
8.480000000000000426e+00 2.576579999999999968e-08
8.500000000000000000e+00 2.519299999999999934e-08
