# log10(T) rate(cm^3/s)
# Total Recomb Rates
3.500000000000000000e+00 1.409071227029348443e-11
3.520080321285140368e+00 1.368479700920793375e-11
3.540160642570281180e+00 1.327961848038334014e-11
3.560240963855421548e+00 1.287729524725514912e-11
3.580321285140562360e+00 1.247982289352470383e-11
3.600401606425702727e+00 1.208905297165905686e-11
3.620481927710843539e+00 1.170667272802932786e-11
3.640562248995983907e+00 1.133418631900995392e-11
3.660642570281124719e+00 1.097289831344870433e-11
3.680722891566265087e+00 1.062390028085499577e-11
3.700803212851405455e+00 1.028806119279749725e-11
3.720883534136546267e+00 9.966022226597427177e-12
3.740963855421686635e+00 9.658196371198848723e-12
3.761044176706827447e+00 9.364773015608519713e-12
3.781124497991967814e+00 9.085727474067710153e-12
3.801204819277108626e+00 8.820835194225031143e-12
3.821285140562248994e+00 8.569690230452371245e-12
3.841365461847389362e+00 8.331727468746451398e-12
3.861445783132530174e+00 8.106248084753952039e-12
3.881526104417670542e+00 7.892447819823427709e-12
3.901606425702811354e+00 7.689447880050306096e-12
3.921686746987951722e+00 7.496328593665352547e-12
3.941767068273092534e+00 7.312166375121921353e-12
3.961847389558232901e+00 7.136074985362185994e-12
3.981927710843373269e+00 6.967252463830960699e-12
4.002008032128514081e+00 6.805035331526183189e-12
4.022088353413654893e+00 6.648961606862913260e-12
4.042168674698794817e+00 6.498843727767049944e-12
4.062248995983935629e+00 6.354851560182047488e-12
4.082329317269076441e+00 6.217604283508203405e-12
4.102409638554217253e+00 6.088268149096775730e-12
4.122489959839357176e+00 5.968655071910194170e-12
4.142570281124497988e+00 5.861314983294845445e-12
4.162650602409638800e+00 5.769613144864193390e-12
4.182730923694778724e+00 5.697782512385801636e-12
4.202811244979919536e+00 5.650941018326467506e-12
4.222891566265060348e+00 5.635064498085359807e-12
4.242971887550201160e+00 5.656907976708913966e-12
4.263052208835341084e+00 5.723871071927553270e-12
4.283132530120481896e+00 5.843807123825703093e-12
4.303212851405622708e+00 6.024779981671434276e-12
4.323293172690762631e+00 6.274776741106663962e-12
4.343373493975903443e+00 6.601388688026901989e-12
4.363453815261044255e+00 7.011475864766604492e-12
4.383534136546185067e+00 7.510832712305582432e-12
4.403614457831324991e+00 8.103872963908222461e-12
4.423694779116465803e+00 8.793351314994301581e-12
4.443775100401606615e+00 9.580137452909809099e-12
4.463855421686746539e+00 1.046305499987901796e-11
4.483935742971887350e+00 1.143879409290106158e-11
4.504016064257028162e+00 1.250190203718447284e-11
4.524096385542168974e+00 1.364485207883665871e-11
4.544176706827309786e+00 1.485818617897119227e-11
4.564257028112449710e+00 1.613072401503420599e-11
4.584337349397590522e+00 1.744982749562486639e-11
4.604417670682730446e+00 1.880170798255224654e-11
4.624497991967871258e+00 2.017176221884646301e-11
4.644578313253012070e+00 2.154492264210910142e-11
4.664658634538152882e+00 2.290600823752341778e-11
4.684738955823293693e+00 2.424006322876427789e-11
4.704819277108433617e+00 2.553267256558918270e-11
4.724899598393574429e+00 2.677024518052542290e-11
4.744979919678714353e+00 2.794025819295880569e-11
4.765060240963855165e+00 2.903145748988739404e-11
4.785140562248995977e+00 3.003401228278974287e-11
4.805220883534136789e+00 3.093962322956507736e-11
4.825301204819277601e+00 3.174158544700683489e-11
4.845381526104417524e+00 3.243480917741111469e-11
4.865461847389558336e+00 3.301580199185737570e-11
4.885542168674698260e+00 3.348261721253651890e-11
4.905622489959839072e+00 3.383477373407547970e-11
4.925702811244979884e+00 3.407315264828729748e-11
4.945783132530120696e+00 3.419987606548148005e-11
4.965863453815261508e+00 3.421817332007592033e-11
4.985943775100401432e+00 3.413223939163453791e-11
5.006024096385542244e+00 3.394708990613369938e-11
5.026104417670682167e+00 3.366841654454547134e-11
5.046184738955822979e+00 3.330244611054723530e-11
5.066265060240963791e+00 3.285580592496884340e-11
5.086345381526104603e+00 3.233539764465115207e-11
5.106425702811245415e+00 3.174828106553966853e-11
5.126506024096385339e+00 3.110156897688734155e-11
5.146586345381526151e+00 3.040233369374856261e-11
5.166666666666666963e+00 2.965752551304846455e-11
5.186746987951806886e+00 2.887390301581735787e-11
5.206827309236947698e+00 2.805797487365278394e-11
5.226907630522088510e+00 2.721595260825278466e-11
5.246987951807229322e+00 2.635371359482426270e-11
5.267068273092369246e+00 2.547677348837817449e-11
5.287148594377510058e+00 2.459026718098962691e-11
5.307228915662650870e+00 2.369893736247623439e-11
5.327309236947790794e+00 2.280712975110156772e-11
5.347389558232931606e+00 2.191879407949286025e-11
5.367469879518072418e+00 2.103748995889090500e-11
5.387550200803213230e+00 2.016639679739603296e-11
5.407630522088353153e+00 1.930832701072370786e-11
5.427710843373493965e+00 1.846574183327725901e-11
5.447791164658634777e+00 1.764076910973097015e-11
5.467871485943774701e+00 1.683522251996587338e-11
5.487951807228915513e+00 1.605062176083305530e-11
5.508032128514056325e+00 1.528821327508837889e-11
5.528112449799197137e+00 1.454899117972391141e-11
5.548192771084337949e+00 1.383371810207410355e-11
5.568273092369477872e+00 1.314294568217757157e-11
5.588353413654618684e+00 1.247703454397096728e-11
5.608433734939758608e+00 1.183617357630457700e-11
5.628514056224899420e+00 1.122039839801739188e-11
5.648594377510040232e+00 1.062960891003877716e-11
5.668674698795181044e+00 1.006358586236566592e-11
5.688755020080321856e+00 9.522006385456198335e-12
5.708835341365461780e+00 9.004458454648334685e-12
5.728915662650602592e+00 8.510454273111156897e-12
5.748995983935742515e+00 8.039442573889309083e-12
5.769076305220883327e+00 7.590819854996847503e-12
5.789156626506024139e+00 7.163940573339172585e-12
5.809236947791164951e+00 6.758126333483276284e-12
5.829317269076305763e+00 6.372674115912069235e-12
5.849397590361445687e+00 6.006863596323692068e-12
5.869477911646586499e+00 5.659963612733286857e-12
5.889558232931726423e+00 5.331237840606678915e-12
5.909638554216867234e+00 5.019949738064098082e-12
5.929718875502008046e+00 4.725366823464349970e-12
5.949799196787148858e+00 4.446764346592656875e-12
5.969879518072289670e+00 4.183428412456232906e-12
5.989959839357429594e+00 3.934658613587841990e-12
6.010040160642570406e+00 3.699770223029230705e-12
6.030120481927710330e+00 3.478095996061438488e-12
6.050200803212851142e+00 3.268987624491448340e-12
6.070281124497991954e+00 3.071816883085230393e-12
6.090361445783132766e+00 2.885976503702315207e-12
6.110441767068273577e+00 2.710880808943798198e-12
6.130522088353413501e+00 2.545966133737017763e-12
6.150602409638554313e+00 2.390691060274465707e-12
6.170682730923694237e+00 2.244536489100041589e-12
6.190763052208835049e+00 2.107005566867285219e-12
6.210843373493975861e+00 1.977623489343758729e-12
6.230923694779116673e+00 1.855937196553967048e-12
6.251004016064257485e+00 1.741514975491814978e-12
6.271084337349397408e+00 1.633945984543296241e-12
6.291164658634538220e+00 1.532839712598867667e-12
6.311244979919678144e+00 1.437825384766912363e-12
6.331325301204818956e+00 1.348551325596772948e-12
6.351405622489959768e+00 1.264684289762789391e-12
6.371485943775100580e+00 1.185908769236107387e-12
6.391566265060241392e+00 1.111926285072961374e-12
6.411646586345381316e+00 1.042454671074496605e-12
6.431726907630522128e+00 9.772273557261046297e-13
6.451807228915662051e+00 9.159926480079807939e-13
6.471887550200802863e+00 8.585130318882846271e-13
6.491967871485943675e+00 8.045644735721433996e-13
6.512048192771084487e+00 7.539357448885054479e-13
6.532128514056225299e+00 7.064277655575657692e-13
6.552208835341365223e+00 6.618529664970507659e-13
6.572289156626506035e+00 6.200346757981843649e-13
6.592369477911645959e+00 5.808065285323547874e-13
6.612449799196786770e+00 5.440119011365246618e-13
6.632530120481927582e+00 5.095033707678859258e-13
6.652610441767068394e+00 4.771421997130898824e-13
6.672690763052209206e+00 4.467978446816274542e-13
6.692771084337350018e+00 4.183474906023668309e-13
6.712851405622489942e+00 3.916756083728707314e-13
6.732931726907629866e+00 3.666735358784375808e-13
6.753012048192770678e+00 3.432390814975261084e-13
6.773092369477911490e+00 3.212761492379890616e-13
6.793172690763052302e+00 3.006943846003661360e-13
6.813253012048193114e+00 2.814088402365575158e-13
6.833333333333333925e+00 2.633396604610110727e-13
6.853413654618473849e+00 2.464117836740302936e-13
6.873493975903614661e+00 2.305546617701314791e-13
6.893574297188754585e+00 2.157019956261646724e-13
6.913654618473895397e+00 2.017914857919970834e-13
6.933734939759036209e+00 1.887645975392893159e-13
6.953815261044177021e+00 1.765663394596380564e-13
6.973895582329317833e+00 1.651450548410409643e-13
6.993975903614457756e+00 1.544522250901616874e-13
7.014056224899598568e+00 1.444422845065110338e-13
7.034136546184738492e+00 1.350724457527954537e-13
7.054216867469879304e+00 1.263025354028295430e-13
7.074297188755020116e+00 1.180948389842931085e-13
7.094377510040160928e+00 1.104139549679278763e-13
7.114457831325301740e+00 1.032266571874430902e-13
7.134538152610441664e+00 9.650176520530319308e-14
7.154618473895582476e+00 9.021002216870310213e-14
7.174698795180722399e+00 8.432397972741246253e-14
7.194779116465863211e+00 7.881788961081118111e-14
7.214859437751004023e+00 7.366760148545422169e-14
7.234939759036144835e+00 6.885046673691660713e-14
7.255020080321285647e+00 6.434524784062627557e-14
7.275100401606425571e+00 6.013203300594164835e-14
7.295180722891566383e+00 5.619215579599192547e-14
7.315261044176706307e+00 5.250811944285964549e-14
7.335341365461847118e+00 4.906352559362319942e-14
7.355421686746987930e+00 4.584300723770535974e-14
7.375502008032128742e+00 4.283216557993746896e-14
7.395582329317269554e+00 4.001751063685564737e-14
7.415662650602409478e+00 3.738640534603992227e-14
7.435742971887550290e+00 3.492701298986463047e-14
7.455823293172690214e+00 3.262824774590589122e-14
7.475903614457831026e+00 3.047972818649101407e-14
7.495983935742971838e+00 2.847173355954215246e-14
7.516064257028112650e+00 2.659516269197964955e-14
7.536144578313252573e+00 2.484149536557265889e-14
7.556224899598393385e+00 2.320275602326976919e-14
7.576305220883534197e+00 2.167147967175701819e-14
7.596385542168675009e+00 2.024067985328967284e-14
7.616465863453814933e+00 1.890381856676558415e-14
7.636546184738955745e+00 1.765477802456373750e-14
7.656626506024096557e+00 1.648783413789040883e-14
7.676706827309237369e+00 1.539763162927033029e-14
7.696787148594377292e+00 1.437916067641474454e-14
7.716867469879518104e+00 1.342773499700249902e-14
7.736947791164658916e+00 1.253897128894391569e-14
7.757028112449798840e+00 1.170876994546931658e-14
7.777108433734939652e+00 1.093329696891286777e-14
7.797188755020080464e+00 1.020896701135516330e-14
7.817269076305221276e+00 9.532427474357474988e-15
7.837349397590361200e+00 8.900543603879703335e-15
7.857429718875502012e+00 8.310384520128858784e-15
7.877510040160642824e+00 7.759210125548784592e-15
7.897590361445782747e+00 7.244458837440477286e-15
7.917670682730923559e+00 6.763736094807562556e-15
7.937751004016064371e+00 6.314803591959674184e-15
7.957831325301205183e+00 5.895569194185044973e-15
7.977911646586345107e+00 5.504077493432757960e-15
7.997991967871485919e+00 5.138500964429069809e-15
8.018072289156627619e+00 4.797131684000316418e-15
8.038152610441766655e+00 4.478373578592141619e-15
8.058232931726907466e+00 4.180735167068700409e-15
8.078313253012048278e+00 3.902822767852722269e-15
8.098393574297189090e+00 3.643334141330735795e-15
8.118473895582329902e+00 3.401052540207863913e-15
8.138554216867468938e+00 3.174841142154350660e-15
8.158634538152611526e+00 2.963637840649086357e-15
8.178714859437750562e+00 2.766450371398643828e-15
8.198795180722891374e+00 2.582351753096351948e-15
8.218875502008032186e+00 2.410476022593746652e-15
8.238955823293172998e+00 2.250014245784588510e-15
8.259036144578313809e+00 2.100210786659692071e-15
8.279116465863452845e+00 1.960359818078734986e-15
8.299196787148595433e+00 1.829802058828832544e-15
8.319277108433734469e+00 1.707921722502362084e-15
8.339357429718875281e+00 1.594143664630424421e-15
8.359437751004016093e+00 1.487930715359383306e-15
8.379518072289156905e+00 1.388781185755540644e-15
8.399598393574297717e+00 1.296226536573770993e-15
8.419678714859436752e+00 1.209829199029996046e-15
8.439759036144579341e+00 1.129180537778651351e-15
8.459839357429718376e+00 1.053898946917191160e-15
8.479919678714859188e+00 9.836280704216458811e-16
8.500000000000000000e+00 9.180351389643750334e-16
