# log10(T) rate(cm^3/s)
# Total Recomb Rates
3.500000000000000000e+00 9.506879580722436422e-13
3.520080321285140368e+00 9.218583391862284000e-13
3.540160642570281180e+00 8.938758887481661405e-13
3.560240963855421548e+00 8.667162375289336666e-13
3.580321285140562360e+00 8.403557009538035744e-13
3.600401606425702727e+00 8.147712606386207641e-13
3.620481927710843539e+00 7.899405463876594307e-13
3.640562248995983907e+00 7.658418186432774805e-13
3.660642570281124719e+00 7.424539513775866024e-13
3.680722891566265087e+00 7.197564154165225213e-13
3.700803212851405455e+00 6.977292621868315355e-13
3.720883534136546267e+00 6.763531078766272654e-13
3.740963855421686635e+00 6.556091180003314883e-13
3.761044176706827447e+00 6.354789923589364214e-13
3.781124497991967814e+00 6.159449503867049458e-13
3.801204819277108626e+00 5.969897168755630946e-13
3.821285140562248994e+00 5.785965080686707593e-13
3.841365461847389362e+00 5.607490181148961861e-13
3.861445783132530174e+00 5.434314058763965272e-13
3.881526104417670542e+00 5.266282820822348417e-13
3.901606425702811354e+00 5.103246968223334505e-13
3.921686746987951722e+00 4.945061273784428063e-13
3.941767068273092534e+00 4.791584663928477437e-13
3.961847389558232901e+00 4.642680103820995264e-13
3.981927710843373269e+00 4.498214486130866786e-13
4.002008032128514081e+00 4.358058523732990803e-13
4.022088353413654893e+00 4.222086646868034213e-13
4.042168674698794817e+00 4.090176905523195187e-13
4.062248995983935629e+00 3.962210878087246393e-13
4.082329317269076441e+00 3.838073587637166047e-13
4.102409638554217253e+00 3.717653427488057879e-13
4.122489959839357176e+00 3.600842097823203368e-13
4.142570281124497988e+00 3.487534555245591487e-13
4.162650602409638800e+00 3.377628976887972632e-13
4.182730923694778724e+00 3.271026740237882083e-13
4.202811244979919536e+00 3.167632419085667193e-13
4.222891566265060348e+00 3.067353795100710937e-13
4.242971887550201160e+00 2.970101883791047458e-13
4.263052208835341084e+00 2.875790973650473172e-13
4.283132530120481896e+00 2.784338679353876636e-13
4.303212851405622708e+00 2.695666016020878307e-13
4.323293172690762631e+00 2.609697515188078654e-13
4.343373493975903443e+00 2.526361429168864641e-13
4.363453815261044255e+00 2.445590115560150685e-13
4.383534136546185067e+00 2.367320765559330212e-13
4.403614457831324991e+00 2.291496745991297688e-13
4.423694779116465803e+00 2.218069970164116846e-13
4.443775100401606615e+00 2.147004894998284194e-13
4.463855421686746539e+00 2.078284948715792088e-13
4.483935742971887350e+00 2.011922397804452422e-13
4.504016064257028162e+00 1.947972821194778537e-13
4.524096385542168974e+00 1.886555417034416728e-13
4.544176706827309786e+00 1.827880259549872041e-13
4.564257028112449710e+00 1.772283291103170199e-13
4.584337349397590522e+00 1.720269237632996207e-13
4.604417670682730446e+00 1.672561768387716101e-13
4.624497991967871258e+00 1.630159123534112254e-13
4.644578313253012070e+00 1.594392197420767286e-13
4.664658634538152882e+00 1.566980829398380361e-13
4.684738955823293693e+00 1.550082988810999283e-13
4.704819277108433617e+00 1.546330825720109754e-13
4.724899598393574429e+00 1.558847354515866692e-13
4.744979919678714353e+00 1.591237956860394744e-13
4.765060240963855165e+00 1.647551976473958517e-13
4.785140562248995977e+00 1.732211391550011423e-13
4.805220883534136789e+00 1.849905768757059835e-13
4.825301204819277601e+00 2.005455233472572200e-13
4.845381526104417524e+00 2.203645794986591194e-13
4.865461847389558336e+00 2.449043787133976414e-13
4.885542168674698260e+00 2.745798183613864423e-13
4.905622489959839072e+00 3.097440926650965267e-13
4.925702811244979884e+00 3.506696037005140235e-13
4.945783132530120696e+00 3.975308100019046425e-13
4.965863453815261508e+00 4.503899773514464293e-13
4.985943775100401432e+00 5.091866337821879178e-13
5.006024096385542244e+00 5.737313161249522961e-13
5.026104417670682167e+00 6.437039477065027424e-13
5.046184738955822979e+00 7.186569265802796195e-13
5.066265060240963791e+00 7.980227507822872211e-13
5.086345381526104603e+00 8.811257789622375305e-13
5.106425702811245415e+00 9.671975350491338713e-13
5.126506024096385339e+00 1.055394823645651859e-12
5.146586345381526151e+00 1.144819833247971230e-12
5.166666666666666963e+00 1.234541367424046735e-12
5.186746987951806886e+00 1.323616356256251399e-12
5.206827309236947698e+00 1.411110855239628287e-12
5.226907630522088510e+00 1.496119828019024645e-12
5.246987951807229322e+00 1.577785123401688842e-12
5.267068273092369246e+00 1.655311186366674330e-12
5.287148594377510058e+00 1.727978178207482521e-12
5.307228915662650870e+00 1.795152314450502993e-12
5.327309236947790794e+00 1.856293354165304199e-12
5.347389558232931606e+00 1.910959285690898405e-12
5.367469879518072418e+00 1.958808348232597423e-12
5.387550200803213230e+00 1.999598604351163975e-12
5.407630522088353153e+00 2.033185334533315802e-12
5.427710843373493965e+00 2.059516562381996029e-12
5.447791164658634777e+00 2.078627038940200515e-12
5.467871485943774701e+00 2.090631019314852006e-12
5.487951807228915513e+00 2.095714156517230975e-12
5.508032128514056325e+00 2.094124818864972170e-12
5.528112449799197137e+00 2.086165110968302825e-12
5.548192771084337949e+00 2.072181846677738545e-12
5.568273092369477872e+00 2.052557687593436844e-12
5.588353413654618684e+00 2.027702624722932293e-12
5.608433734939758608e+00 1.998045945194764073e-12
5.628514056224899420e+00 1.964028791830759198e-12
5.648594377510040232e+00 1.926097391774140522e-12
5.668674698795181044e+00 1.884697001899010515e-12
5.688755020080321856e+00 1.840266593770553950e-12
5.708835341365461780e+00 1.793234279651018750e-12
5.728915662650602592e+00 1.744013463447139307e-12
5.748995983935742515e+00 1.692999686428314388e-12
5.769076305220883327e+00 1.640568126771114935e-12
5.789156626506024139e+00 1.587071704197836993e-12
5.809236947791164951e+00 1.532839735828166008e-12
5.829317269076305763e+00 1.478177086490723334e-12
5.849397590361445687e+00 1.423363755782509923e-12
5.869477911646586499e+00 1.368654844770916570e-12
5.889558232931726423e+00 1.314280847080412932e-12
5.909638554216867234e+00 1.260448211899455490e-12
5.929718875502008046e+00 1.207340129921891105e-12
5.949799196787148858e+00 1.155117497174449377e-12
5.969879518072289670e+00 1.103920015886828831e-12
5.989959839357429594e+00 1.053867395874459864e-12
6.010040160642570406e+00 1.005060624198705050e-12
6.030120481927710330e+00 9.575832750450283495e-13
6.050200803212851142e+00 9.115028357409005899e-13
6.070281124497991954e+00 8.668720285681208968e-13
6.090361445783132766e+00 8.237301114723822051e-13
6.110441767068273577e+00 7.821041439156656758e-13
6.130522088353413501e+00 7.420102069453960631e-13
6.150602409638554313e+00 7.034545690692811227e-13
6.170682730923694237e+00 6.664347917348844882e-13
6.190763052208835049e+00 6.309407701320236962e-13
6.210843373493975861e+00 5.969557066823167364e-13
6.230923694779116673e+00 5.644570159736695467e-13
6.251004016064257485e+00 5.334171610605686524e-13
6.271084337349397408e+00 5.038044220058877630e-13
6.291164658634538220e+00 4.755835983091053386e-13
6.311244979919678144e+00 4.487166474710164111e-13
6.331325301204818956e+00 4.231632624068299497e-13
6.351405622489959768e+00 3.988813907575107675e-13
6.371485943775100580e+00 3.758276993810343490e-13
6.391566265060241392e+00 3.539579874474515015e-13
6.411646586345381316e+00 3.332275516288922352e-13
6.431726907630522128e+00 3.135915068811553074e-13
6.451807228915662051e+00 2.950050662689969636e-13
6.471887550200802863e+00 2.774237832028205564e-13
6.491967871485943675e+00 2.608037593391927414e-13
6.512048192771084487e+00 2.451018212589670608e-13
6.532128514056225299e+00 2.302756688814579805e-13
6.552208835341365223e+00 2.162839984064770659e-13
6.572289156626506035e+00 2.030866024027596771e-13
6.592369477911645959e+00 1.906444494851790512e-13
6.612449799196786770e+00 1.789197458471870320e-13
6.632530120481927582e+00 1.678759807417076010e-13
6.652610441767068394e+00 1.574779578350514597e-13
6.672690763052209206e+00 1.476918141959162072e-13
6.692771084337350018e+00 1.384850285261939629e-13
6.712851405622489942e+00 1.298264200929415486e-13
6.732931726907629866e+00 1.216861396819534193e-13
6.753012048192770678e+00 1.140356537632014997e-13
6.773092369477911490e+00 1.068477229370376854e-13
6.793172690763052302e+00 1.000963756174605779e-13
6.813253012048193114e+00 9.375687780474697041e-14
6.833333333333333925e+00 8.780569970407445530e-14
6.853413654618473849e+00 8.222047985909519633e-14
6.873493975903614661e+00 7.697998738938376202e-14
6.893574297188754585e+00 7.206408284787032129e-14
6.913654618473895397e+00 6.745367814833832557e-14
6.933734939759036209e+00 6.313069595341179900e-14
6.953815261044177021e+00 5.907802885969515009e-14
6.973895582329317833e+00 5.527949866847388476e-14
6.993975903614457756e+00 5.171981598717760348e-14
7.014056224899598568e+00 4.838454036826196218e-14
7.034136546184738492e+00 4.526004115788931737e-14
7.054216867469879304e+00 4.233345919639831034e-14
7.074297188755020116e+00 3.959266948572393429e-14
7.094377510040160928e+00 3.702624491530494151e-14
7.114457831325301740e+00 3.462342111731651397e-14
7.134538152610441664e+00 3.237406250398853366e-14
7.154618473895582476e+00 3.026862952406061481e-14
7.174698795180722399e+00 2.829814716184126037e-14
7.194779116465863211e+00 2.645417469064777277e-14
7.214859437751004023e+00 2.472877668241983248e-14
7.234939759036144835e+00 2.311449526681355302e-14
7.255020080321285647e+00 2.160432362594641942e-14
7.275100401606425571e+00 2.019168070500696706e-14
7.295180722891566383e+00 1.887038711403497686e-14
7.315261044176706307e+00 1.763464219219086093e-14
7.335341365461847118e+00 1.647900220264915521e-14
7.355421686746987930e+00 1.539835962377732287e-14
7.375502008032128742e+00 1.438792350039415658e-14
7.395582329317269554e+00 1.344320081757174439e-14
7.415662650602409478e+00 1.255997885856933255e-14
7.435742971887550290e+00 1.173430850800603557e-14
7.455823293172690214e+00 1.096248846123383827e-14
7.475903614457831026e+00 1.024105030100852965e-14
7.495983935742971838e+00 9.566744402934761085e-15
7.516064257028112650e+00 8.936526631734673478e-15
7.536144578313252573e+00 8.347545791130212552e-15
7.556224899598393385e+00 7.797131791000333434e-15
7.576305220883534197e+00 7.282784496453417411e-15
7.596385542168675009e+00 6.802163224515309943e-15
7.616465863453814933e+00 6.353076855257926018e-15
7.636546184738955745e+00 5.933474525361183642e-15
7.656626506024096557e+00 5.541436873300074310e-15
7.676706827309237369e+00 5.175167806563383119e-15
7.696787148594377292e+00 4.832986762532777032e-15
7.716867469879518104e+00 4.513321435868562165e-15
7.736947791164658916e+00 4.214700946456104171e-15
7.757028112449798840e+00 3.935749423155902158e-15
7.777108433734939652e+00 3.675179979767651175e-15
7.797188755020080464e+00 3.431789060758099145e-15
7.817269076305221276e+00 3.204451135411321965e-15
7.837349397590361200e+00 2.992113720136225373e-15
7.857429718875502012e+00 2.793792709706286466e-15
7.877510040160642824e+00 2.608567999210608260e-15
7.897590361445782747e+00 2.435579379461153709e-15
7.917670682730923559e+00 2.274022689529100655e-15
7.937751004016064371e+00 2.123146210972702660e-15
7.957831325301205183e+00 1.982247289169883158e-15
7.977911646586345107e+00 1.850669167982144988e-15
7.997991967871485919e+00 1.727798024751879336e-15
8.018072289156627619e+00 1.613060193374267513e-15
8.038152610441766655e+00 1.505919563887939531e-15
8.058232931726907466e+00 1.405875147696852710e-15
8.078313253012048278e+00 1.312458798170543259e-15
8.098393574297189090e+00 1.225233076971202308e-15
8.118473895582329902e+00 1.143789257026681810e-15
8.138554216867468938e+00 1.067745453608189902e-15
8.158634538152611526e+00 9.967448754822330488e-16
8.178714859437750562e+00 9.304541885893841705e-16
8.198795180722891374e+00 8.685619851582039783e-16
8.218875502008032186e+00 8.107773515938814452e-16
8.238955823293172998e+00 7.568285288869210907e-16
8.259036144578313809e+00 7.064616596707651961e-16
8.279116465863452845e+00 6.594396164182117620e-16
8.299196787148595433e+00 6.155409056067135869e-16
8.319277108433734469e+00 5.745586430030896919e-16
8.339357429718875281e+00 5.362995955194354535e-16
8.359437751004016093e+00 5.005832853760152256e-16
8.379518072289156905e+00 4.672411525733363211e-16
8.399598393574297717e+00 4.361157719266066362e-16
8.419678714859436752e+00 4.070601211513530224e-16
8.439759036144579341e+00 3.799368967103826594e-16
8.459839357429718376e+00 3.546178743402879703e-16
8.479919678714859188e+00 3.309833113707725354e-16
8.500000000000000000e+00 3.089213881335585444e-16
