# log10(T) rate(cm^3/s)
# Total Recomb Rates
3.500000000000000000e+00 1.710537618699093894e-10
3.520080321285140368e+00 1.668036867411775620e-10
3.540160642570281180e+00 1.626234231499628511e-10
3.560240963855421548e+00 1.585185437953929450e-10
3.580321285140562360e+00 1.544922883646426467e-10
3.600401606425702727e+00 1.505458232870222752e-10
3.620481927710843539e+00 1.466785377297275499e-10
3.640562248995983907e+00 1.428883606411336247e-10
3.660642570281124719e+00 1.391720848251826971e-10
3.680722891566265087e+00 1.355256857419116360e-10
3.700803212851405455e+00 1.319446248081630250e-10
3.720883534136546267e+00 1.284241292491766887e-10
3.740963855421686635e+00 1.249594428612871321e-10
3.761044176706827447e+00 1.215460442364758674e-10
3.781124497991967814e+00 1.181798309395793275e-10
3.801204819277108626e+00 1.148572697152354928e-10
3.821285140562248994e+00 1.115755139666558189e-10
3.841365461847389362e+00 1.083324904666297009e-10
3.861445783132530174e+00 1.051269575531893237e-10
3.881526104417670542e+00 1.019585369932654490e-10
3.901606425702811354e+00 9.882772137099045854e-11
3.921686746987951722e+00 9.573585840259243316e-11
3.941767068273092534e+00 9.268511313567493468e-11
3.961847389558232901e+00 8.967840868550456108e-11
3.981927710843373269e+00 8.671934609440779964e-11
4.002008032128514081e+00 8.381210412894877753e-11
4.022088353413654893e+00 8.096132035833603419e-11
4.042168674698794817e+00 7.817195564026789331e-11
4.062248995983935629e+00 7.544914508742174566e-11
4.082329317269076441e+00 7.279803958014266590e-11
4.102409638554217253e+00 7.022364279898208989e-11
4.122489959839357176e+00 6.773064945375212364e-11
4.142570281124497988e+00 6.532329078911995132e-11
4.162650602409638800e+00 6.300519349522942166e-11
4.182730923694778724e+00 6.077925783609169999e-11
4.202811244979919536e+00 5.864756016458416461e-11
4.222891566265060348e+00 5.661128409419585481e-11
4.242971887550201160e+00 5.467068354047335349e-11
4.263052208835341084e+00 5.282507972985831200e-11
4.283132530120481896e+00 5.107289318442963109e-11
4.303212851405622708e+00 4.941171067799094300e-11
4.323293172690762631e+00 4.783838622642777950e-11
4.343373493975903443e+00 4.634917428102966456e-11
4.363453815261044255e+00 4.493989235954276875e-11
4.383534136546185067e+00 4.360610928511740991e-11
4.403614457831324991e+00 4.234335393478773330e-11
4.423694779116465803e+00 4.114733790338227633e-11
4.443775100401606615e+00 4.001418381838344694e-11
4.463855421686746539e+00 3.894064933648269760e-11
4.483935742971887350e+00 3.792433533411170228e-11
4.504016064257028162e+00 3.696386574577978072e-11
4.524096385542168974e+00 3.605902618854261421e-11
4.544176706827309786e+00 3.521084917817950485e-11
4.564257028112449710e+00 3.442163553879582385e-11
4.584337349397590522e+00 3.369490454674953354e-11
4.604417670682730446e+00 3.303526929621130848e-11
4.624497991967871258e+00 3.244823844799303789e-11
4.644578313253012070e+00 3.193995053284377058e-11
4.664658634538152882e+00 3.151685186772906062e-11
4.684738955823293693e+00 3.118533344497079068e-11
4.704819277108433617e+00 3.095134545834914103e-11
4.724899598393574429e+00 3.082001012849387695e-11
4.744979919678714353e+00 3.079525400930101910e-11
4.765060240963855165e+00 3.087947997480821889e-11
4.785140562248995977e+00 3.107329672265282151e-11
4.805220883534136789e+00 3.137532012651558039e-11
4.825301204819277601e+00 3.178205645039644767e-11
4.845381526104417524e+00 3.228787266897051871e-11
4.865461847389558336e+00 3.288505428848500648e-11
4.885542168674698260e+00 3.356394646548126693e-11
4.905622489959839072e+00 3.431317015044689581e-11
4.925702811244979884e+00 3.511990164128647011e-11
4.945783132530120696e+00 3.597020144166939092e-11
4.965863453815261508e+00 3.684937673532340991e-11
4.985943775100401432e+00 3.774236110290300305e-11
5.006024096385542244e+00 3.863409527058665502e-11
5.026104417670682167e+00 3.950989360310880106e-11
5.046184738955822979e+00 4.035578262978616500e-11
5.066265060240963791e+00 4.115879999630154166e-11
5.086345381526104603e+00 4.190724473337158374e-11
5.106425702811245415e+00 4.259087248497149958e-11
5.126506024096385339e+00 4.320103219905977817e-11
5.146586345381526151e+00 4.373074360891364333e-11
5.166666666666666963e+00 4.417471748560866685e-11
5.186746987951806886e+00 4.452932299716965658e-11
5.206827309236947698e+00 4.479250846308683746e-11
5.226907630522088510e+00 4.496368326692988376e-11
5.246987951807229322e+00 4.504356963967076738e-11
5.267068273092369246e+00 4.503403344188441356e-11
5.287148594377510058e+00 4.493790297851259409e-11
5.307228915662650870e+00 4.475878433051586420e-11
5.327309236947790794e+00 4.450088076338909531e-11
5.347389558232931606e+00 4.416882256975765631e-11
5.367469879518072418e+00 4.376751232650745155e-11
5.387550200803213230e+00 4.330198909962466320e-11
5.407630522088353153e+00 4.277731370703293850e-11
5.427710843373493965e+00 4.219847583150937682e-11
5.447791164658634777e+00 4.157032262398342049e-11
5.467871485943774701e+00 4.089750749353930063e-11
5.487951807228915513e+00 4.018445706541939920e-11
5.508032128514056325e+00 3.943535380500161356e-11
5.528112449799197137e+00 3.865413154140731796e-11
5.548192771084337949e+00 3.784448105463788105e-11
5.568273092369477872e+00 3.700986298264413041e-11
5.588353413654618684e+00 3.615352552314775316e-11
5.608433734939758608e+00 3.527852471225647539e-11
5.628514056224899420e+00 3.438774542279744113e-11
5.648594377510040232e+00 3.348392160862407428e-11
5.668674698795181044e+00 3.256965470089174084e-11
5.688755020080321856e+00 3.164742941820161606e-11
5.708835341365461780e+00 3.071962657013721205e-11
5.728915662650602592e+00 2.978853270407092823e-11
5.748995983935742515e+00 2.885634666395935503e-11
5.769076305220883327e+00 2.792518329685059933e-11
5.789156626506024139e+00 2.699707466069349697e-11
5.809236947791164951e+00 2.607396916057579063e-11
5.829317269076305763e+00 2.515772907587700082e-11
5.849397590361445687e+00 2.425012694477688197e-11
5.869477911646586499e+00 2.335284125197956841e-11
5.889558232931726423e+00 2.246745182693555033e-11
5.909638554216867234e+00 2.159543530918689410e-11
5.929718875502008046e+00 2.073816097986606112e-11
5.949799196787148858e+00 1.989688719810067381e-11
5.969879518072289670e+00 1.907275862150993155e-11
5.989959839357429594e+00 1.826680433366850521e-11
6.010040160642570406e+00 1.747993695016082664e-11
6.030120481927710330e+00 1.671295272979564154e-11
6.050200803212851142e+00 1.596653267928945508e-11
6.070281124497991954e+00 1.524124460842252589e-11
6.090361445783132766e+00 1.453754606813641893e-11
6.110441767068273577e+00 1.385578808586234877e-11
6.130522088353413501e+00 1.319621959995260419e-11
6.150602409638554313e+00 1.255899248774997516e-11
6.170682730923694237e+00 1.194416707884127522e-11
6.190763052208835049e+00 1.135171804566474934e-11
6.210843373493975861e+00 1.078154056717473453e-11
6.230923694779116673e+00 1.023345666704584334e-11
6.251004016064257485e+00 9.707221635334856813e-12
6.271084337349397408e+00 9.202530451080657979e-12
6.291164658634538220e+00 8.719024132562933039e-12
6.311244979919678144e+00 8.256295951478910031e-12
6.331325301204818956e+00 7.813897456822913049e-12
6.351405622489959768e+00 7.391344263523433983e-12
6.371485943775100580e+00 6.988121569713775083e-12
6.391566265060241392e+00 6.603689374752421519e-12
6.411646586345381316e+00 6.237487377670943994e-12
6.431726907630522128e+00 5.888939542555773830e-12
6.451807228915662051e+00 5.557458323439514356e-12
6.471887550200802863e+00 5.242448546585120665e-12
6.491967871485943675e+00 4.943310952612773163e-12
6.512048192771084487e+00 4.659445404774560482e-12
6.532128514056225299e+00 4.390253772872501922e-12
6.552208835341365223e+00 4.135142504889635366e-12
6.572289156626506035e+00 3.893524900417997381e-12
6.592369477911645959e+00 3.664823101478371987e-12
6.612449799196786770e+00 3.448469817391135562e-12
6.632530120481927582e+00 3.243909801032870243e-12
6.652610441767068394e+00 3.050601094151196301e-12
6.672690763052209206e+00 2.868016059462960620e-12
6.692771084337350018e+00 2.695642217073629915e-12
6.712851405622489942e+00 2.532982902372138755e-12
6.732931726907629866e+00 2.379557762013691644e-12
6.753012048192770678e+00 2.234903103937894554e-12
6.773092369477911490e+00 2.098572116610970132e-12
6.793172690763052302e+00 1.970134971855757902e-12
6.813253012048193114e+00 1.849178824764324743e-12
6.833333333333333925e+00 1.735307723294633784e-12
6.853413654618473849e+00 1.628142439251497352e-12
6.873493975903614661e+00 1.527320231456286577e-12
6.893574297188754585e+00 1.432494551030846262e-12
6.913654618473895397e+00 1.343334697867139811e-12
6.933734939759036209e+00 1.259525436532859436e-12
6.953815261044177021e+00 1.180766579078814139e-12
6.973895582329317833e+00 1.106772541470871634e-12
6.993975903614457756e+00 1.037271879669369080e-12
7.014056224899598568e+00 9.720068107238650992e-13
7.034136546184738492e+00 9.107327236413874040e-13
7.054216867469879304e+00 8.532176842214446525e-13
7.074297188755020116e+00 7.992419375306542946e-13
7.094377510040160928e+00 7.485974112120919857e-13
7.114457831325301740e+00 7.010872223882931423e-13
7.134538152610441664e+00 6.565251905199840908e-13
7.154618473895582476e+00 6.147353582232381487e-13
7.174698795180722399e+00 5.755515217236567211e-13
7.194779116465863211e+00 5.388167723349632860e-13
7.214859437751004023e+00 5.043830500891494725e-13
7.234939759036144835e+00 4.721107104133577432e-13
7.255020080321285647e+00 4.418681045432468812e-13
7.275100401606425571e+00 4.135311741812242550e-13
7.295180722891566383e+00 3.869830607487649228e-13
7.315261044176706307e+00 3.621137294430842759e-13
7.335341365461847118e+00 3.388196081877624604e-13
7.355421686746987930e+00 3.170032414629674990e-13
7.375502008032128742e+00 2.965729589118314740e-13
7.395582329317269554e+00 2.774425585440154274e-13
7.415662650602409478e+00 2.595310042939634519e-13
7.435742971887550290e+00 2.427621376386060564e-13
7.455823293172690214e+00 2.270644029361010196e-13
7.475903614457831026e+00 2.123705861124612636e-13
7.495983935742971838e+00 1.986175662957176873e-13
7.516064257028112650e+00 1.857460799765542361e-13
7.536144578313252573e+00 1.737004972594417985e-13
7.556224899598393385e+00 1.624286097583412145e-13
7.576305220883534197e+00 1.518814296854363878e-13
7.596385542168675009e+00 1.420129996794431605e-13
7.616465863453814933e+00 1.327802129213300664e-13
7.636546184738955745e+00 1.241426430892488947e-13
7.656626506024096557e+00 1.160623837107177764e-13
7.676706827309237369e+00 1.085038964782078695e-13
7.696787148594377292e+00 1.014338681039643834e-13
7.716867469879518104e+00 9.482107530079751844e-14
7.736947791164658916e+00 8.863625748749188144e-14
7.757028112449798840e+00 8.285199683013262042e-14
7.777108433734939652e+00 7.744260524388056500e-14
7.797188755020080464e+00 7.238401799333435167e-14
7.817269076305221276e+00 6.765369354346179461e-14
7.837349397590361200e+00 6.323051932704850407e-14
7.857429718875502012e+00 5.909472310856786461e-14
7.877510040160642824e+00 5.522778963825090812e-14
7.897590361445782747e+00 5.161238230383097115e-14
7.917670682730923559e+00 4.823226950091319643e-14
7.937751004016064371e+00 4.507225545610313292e-14
7.957831325301205183e+00 4.211811524988125889e-14
7.977911646586345107e+00 3.935653379871069350e-14
7.997991967871485919e+00 3.677504856796869790e-14
8.018072289156627619e+00 3.436199579899568404e-14
8.038152610441766655e+00 3.210646004483138953e-14
8.058232931726907466e+00 2.999822682005751005e-14
8.078313253012048278e+00 2.802773818058709402e-14
8.098393574297189090e+00 2.618605105921150926e-14
8.118473895582329902e+00 2.446479819227329814e-14
8.138554216867468938e+00 2.285615148194879112e-14
8.158634538152611526e+00 2.135278764732463508e-14
8.178714859437750562e+00 1.994785602574421750e-14
8.198795180722891374e+00 1.863494839377756685e-14
8.218875502008032186e+00 1.740807068467609170e-14
8.238955823293172998e+00 1.626161648627883504e-14
8.259036144578313809e+00 1.519034221009646135e-14
8.279116465863452845e+00 1.418934382869467387e-14
8.299196787148595433e+00 1.325403508455902400e-14
8.319277108433734469e+00 1.238012707935983386e-14
8.339357429718875281e+00 1.156360915795357680e-14
8.359437751004016093e+00 1.080073100658898882e-14
8.379518072289156905e+00 1.008798588961876799e-14
8.399598393574297717e+00 9.422094953590802472e-15
8.419678714859436752e+00 8.799992531900420330e-15
8.439759036144579341e+00 8.218812387248790296e-15
8.459839357429718376e+00 7.675874832984012851e-15
8.479919678714859188e+00 7.168674678005948697e-15
8.500000000000000000e+00 6.694869943318008795e-15
