# log10(T) rate(cm^3/s)
# Total Recomb Rates
3.500000000000000000e+00 1.723845256724478007e-12
3.520080321285140368e+00 1.692529805606306008e-12
3.540160642570281180e+00 1.660614547800348967e-12
3.560240963855421548e+00 1.628037679454255990e-12
3.580321285140562360e+00 1.594767137297356949e-12
3.600401606425702727e+00 1.560797452702247717e-12
3.620481927710843539e+00 1.526146500185479009e-12
3.640562248995983907e+00 1.490852226094708438e-12
3.660642570281124719e+00 1.454969431932877666e-12
3.680722891566265087e+00 1.418566675022607498e-12
3.700803212851405455e+00 1.381723337606721245e-12
3.720883534136546267e+00 1.344526904550374626e-12
3.740963855421686635e+00 1.307070480092462594e-12
3.761044176706827447e+00 1.269450566196124018e-12
3.781124497991967814e+00 1.231765119721980356e-12
3.801204819277108626e+00 1.194111903831116425e-12
3.821285140562248994e+00 1.156587151804071619e-12
3.841365461847389362e+00 1.119284569900295277e-12
3.861445783132530174e+00 1.082294720676973705e-12
3.881526104417670542e+00 1.045704849158669520e-12
3.901606425702811354e+00 1.009599239748910845e-12
3.921686746987951722e+00 9.740602181517417397e-13
3.941767068273092534e+00 9.391699339482367902e-13
3.961847389558232901e+00 9.050130680517323884e-13
3.981927710843373269e+00 8.716805963268777526e-13
4.002008032128514081e+00 8.392746982588066254e-13
4.022088353413654893e+00 8.079148226999191887e-13
4.042168674698794817e+00 7.777448115384784981e-13
4.062248995983935629e+00 7.489408435169845946e-13
4.082329317269076441e+00 7.217198084842293421e-13
4.102409638554217253e+00 6.963475772899741689e-13
4.122489959839357176e+00 6.731465178429855775e-13
4.142570281124497988e+00 6.525015463250229193e-13
4.162650602409638800e+00 6.348640116174118946e-13
4.182730923694778724e+00 6.207527986252539495e-13
4.202811244979919536e+00 6.107521982739182732e-13
4.222891566265060348e+00 6.055063119725326149e-13
4.242971887550201160e+00 6.057100095203579654e-13
4.263052208835341084e+00 6.120967091786081231e-13
4.283132530120481896e+00 6.254234642948314315e-13
4.303212851405622708e+00 6.464539956744906455e-13
4.323293172690762631e+00 6.759403867470213528e-13
4.343373493975903443e+00 7.146041567159173364e-13
4.363453815261044255e+00 7.631173558995744779e-13
4.383534136546185067e+00 8.220842086944784226e-13
4.403614457831324991e+00 8.920236905554715716e-13
4.423694779116465803e+00 9.733532943331108053e-13
4.443775100401606615e+00 1.066374141922048782e-12
4.463855421686746539e+00 1.171257544549925047e-12
4.483935742971887350e+00 1.288033113547738846e-12
4.504016064257028162e+00 1.416578566767140423e-12
4.524096385542168974e+00 1.556611448881622123e-12
4.544176706827309786e+00 1.707683066150737400e-12
4.564257028112449710e+00 1.869175005918545804e-12
4.584337349397590522e+00 2.040298648627081453e-12
4.604417670682730446e+00 2.220098071375337673e-12
4.624497991967871258e+00 2.407456680309510008e-12
4.644578313253012070e+00 2.601107795555202284e-12
4.664658634538152882e+00 2.799649255384964430e-12
4.684738955823293693e+00 3.001561919819948512e-12
4.704819277108433617e+00 3.205231755216746876e-12
4.724899598393574429e+00 3.408974988861941786e-12
4.744979919678714353e+00 3.611065653182029111e-12
4.765060240963855165e+00 3.809764706805295681e-12
4.785140562248995977e+00 4.003349834061271463e-12
4.805220883534136789e+00 4.190144990460980050e-12
4.825301204819277601e+00 4.368548779418808626e-12
4.845381526104417524e+00 4.537060810923543720e-12
4.865461847389558336e+00 4.694305298706078820e-12
4.885542168674698260e+00 4.839051289112736431e-12
4.905622489959839072e+00 4.970229071666499076e-12
4.925702811244979884e+00 5.086942487351190646e-12
4.945783132530120696e+00 5.188477015886694334e-12
4.965863453815261508e+00 5.274303678941398846e-12
4.985943775100401432e+00 5.344078935396590145e-12
5.006024096385542244e+00 5.397640862449912864e-12
5.026104417670682167e+00 5.435002009509878719e-12
5.046184738955822979e+00 5.456339379309880588e-12
5.066265060240963791e+00 5.461982032860508413e-12
5.086345381526104603e+00 5.452396833438921102e-12
5.106425702811245415e+00 5.428172842399399558e-12
5.126506024096385339e+00 5.390004859408335957e-12
5.146586345381526151e+00 5.338676565302403160e-12
5.166666666666666963e+00 5.275043680741950365e-12
5.186746987951806886e+00 5.200017501638379091e-12
5.206827309236947698e+00 5.114549116133219734e-12
5.226907630522088510e+00 5.019614550457890974e-12
5.246987951807229322e+00 4.916201034611430964e-12
5.267068273092369246e+00 4.805294525290618480e-12
5.287148594377510058e+00 4.687868574260258479e-12
5.307228915662650870e+00 4.564874586300037134e-12
5.327309236947790794e+00 4.437233472562897767e-12
5.347389558232931606e+00 4.305828672858342236e-12
5.367469879518072418e+00 4.171500493993592401e-12
5.387550200803213230e+00 4.035041690619096046e-12
5.407630522088353153e+00 3.897194199631826956e-12
5.427710843373493965e+00 3.758646928583652755e-12
5.447791164658634777e+00 3.620034492155157655e-12
5.467871485943774701e+00 3.481936787991916967e-12
5.487951807228915513e+00 3.344879303467284028e-12
5.508032128514056325e+00 3.209334047661845492e-12
5.528112449799197137e+00 3.075721007502625007e-12
5.548192771084337949e+00 2.944410033101984478e-12
5.568273092369477872e+00 2.815723064448107472e-12
5.588353413654618684e+00 2.689936619355332240e-12
5.608433734939758608e+00 2.567284470669943855e-12
5.628514056224899420e+00 2.447960448885752837e-12
5.648594377510040232e+00 2.332121314347202060e-12
5.668674698795181044e+00 2.219889650942959590e-12
5.688755020080321856e+00 2.111356740500850246e-12
5.708835341365461780e+00 2.006585383899824014e-12
5.728915662650602592e+00 1.905612641162489891e-12
5.748995983935742515e+00 1.808452468453366938e-12
5.769076305220883327e+00 1.715098234974230480e-12
5.789156626506024139e+00 1.625525107227122289e-12
5.809236947791164951e+00 1.539692292026782438e-12
5.829317269076305763e+00 1.457545133017542596e-12
5.849397590361445687e+00 1.379017058320061116e-12
5.869477911646586499e+00 1.304031379340700981e-12
5.889558232931726423e+00 1.232502942762702113e-12
5.909638554216867234e+00 1.164339639345798463e-12
5.929718875502008046e+00 1.099443774432141486e-12
5.949799196787148858e+00 1.037713306031101391e-12
5.969879518072289670e+00 9.790429570729016559e-13
5.989959839357429594e+00 9.233252089164784241e-13
6.010040160642570406e+00 8.704511835038214658e-13
6.030120481927710330e+00 8.203114217014373513e-13
6.050200803212851142e+00 7.727965653864653607e-13
6.070281124497991954e+00 7.277979507449103888e-13
6.090361445783132766e+00 6.852081200733650746e-13
6.110441767068273577e+00 6.449212591325680870e-13
6.130522088353413501e+00 6.068335668070973265e-13
6.150602409638554313e+00 5.708435634944019142e-13
6.170682730923694237e+00 5.368523442900746426e-13
6.190763052208835049e+00 5.047637826644800831e-13
6.210843373493975861e+00 4.744846899470691397e-13
6.230923694779116673e+00 4.459249355553175195e-13
6.251004016064257485e+00 4.189975325309677571e-13
6.271084337349397408e+00 3.936186925811698092e-13
6.291164658634538220e+00 3.697078544696377422e-13
6.311244979919678144e+00 3.471876892655276410e-13
6.331325301204818956e+00 3.259840856370675636e-13
6.351405622489959768e+00 3.060261180743756886e-13
6.371485943775100580e+00 2.872460006418427548e-13
6.391566265060241392e+00 2.695790285954249378e-13
6.411646586345381316e+00 2.529635099539685411e-13
6.431726907630522128e+00 2.373406888860515513e-13
6.451807228915662051e+00 2.226546625642516287e-13
6.471887550200802863e+00 2.088522929465106349e-13
6.491967871485943675e+00 1.958831147686920181e-13
6.512048192771084487e+00 1.836992408725296893e-13
6.532128514056225299e+00 1.722552658481598729e-13
6.552208835341365223e+00 1.615081688392935903e-13
6.572289156626506035e+00 1.514172162409246549e-13
6.592369477911645959e+00 1.419438649133497295e-13
6.612449799196786770e+00 1.330516664412507625e-13
6.632530120481927582e+00 1.247061728818418457e-13
6.652610441767068394e+00 1.168748443706792741e-13
6.672690763052209206e+00 1.095269588869531145e-13
6.692771084337350018e+00 1.026335244210932540e-13
6.712851405622489942e+00 9.616719373565080073e-14
6.732931726907629866e+00 9.010218186497343113e-14
6.753012048192770678e+00 8.441418645956267819e-14
6.773092369477911490e+00 7.908031104658924465e-14
6.793172690763052302e+00 7.407899124833332163e-14
6.813253012048193114e+00 6.938992397480812077e-14
6.833333333333333925e+00 6.499399958506250411e-14
6.853413654618473849e+00 6.087323699324015746e-14
6.873493975903614661e+00 5.701072168001412149e-14
6.893574297188754585e+00 5.339054655718321398e-14
6.913654618473895397e+00 4.999775562268872681e-14
6.933734939759036209e+00 4.681829033482797359e-14
6.953815261044177021e+00 4.383893862772514861e-14
6.973895582329317833e+00 4.104728648497196497e-14
6.993975903614457756e+00 3.843167198454446872e-14
7.014056224899598568e+00 3.598114172546927171e-14
7.034136546184738492e+00 3.368540954508717713e-14
7.054216867469879304e+00 3.153481743499260403e-14
7.074297188755020116e+00 2.952029856370185911e-14
7.094377510040160928e+00 2.763334231468497930e-14
7.114457831325301740e+00 2.586596124950732887e-14
7.134538152610441664e+00 2.421065990736232490e-14
7.154618473895582476e+00 2.266040535416657654e-14
7.174698795180722399e+00 2.120859939656416528e-14
7.194779116465863211e+00 1.984905237858250424e-14
7.214859437751004023e+00 1.857595848125764632e-14
7.234939759036144835e+00 1.738387244824257504e-14
7.255020080321285647e+00 1.626768766320353209e-14
7.275100401606425571e+00 1.522261550765284344e-14
7.295180722891566383e+00 1.424416593073922620e-14
7.315261044176706307e+00 1.332812916539344600e-14
7.335341365461847118e+00 1.247055852808437269e-14
7.355421686746987930e+00 1.166775424226860417e-14
7.375502008032128742e+00 1.091624822839212256e-14
7.395582329317269554e+00 1.021278980602273457e-14
7.415662650602409478e+00 9.554332256341512770e-15
7.435742971887550290e+00 8.938020195796085294e-15
7.455823293172690214e+00 8.361177714212605125e-15
7.475903614457831026e+00 7.821297233070185123e-15
7.495983935742971838e+00 7.316029041963145894e-15
7.516064257028112650e+00 6.843171473504937457e-15
7.536144578313252573e+00 6.400661679068076658e-15
7.556224899598393385e+00 5.986566969802301520e-15
7.576305220883534197e+00 5.599076689331830142e-15
7.596385542168675009e+00 5.236494586401170776e-15
7.616465863453814933e+00 4.897231657521047006e-15
7.636546184738955745e+00 4.579799431361398099e-15
7.656626506024096557e+00 4.282803668251282555e-15
7.676706827309237369e+00 4.004938449676397656e-15
7.696787148594377292e+00 3.744980634118538114e-15
7.716867469879518104e+00 3.501784656958255125e-15
7.736947791164658916e+00 3.274277653466984965e-15
7.757028112449798840e+00 3.061454885149051311e-15
7.777108433734939652e+00 2.862375450861954204e-15
7.797188755020080464e+00 2.676158265246685878e-15
7.817269076305221276e+00 2.501978288041787298e-15
7.837349397590361200e+00 2.339062988838869365e-15
7.857429718875502012e+00 2.186689032765173440e-15
7.877510040160642824e+00 2.044179173454072211e-15
7.897590361445782747e+00 1.910899340489009816e-15
7.917670682730923559e+00 1.786255909283631770e-15
7.937751004016064371e+00 1.669693142092726839e-15
7.957831325301205183e+00 1.560690789537344301e-15
7.977911646586345107e+00 1.458761842676054157e-15
7.997991967871485919e+00 1.363450426264163426e-15
8.018072289156627619e+00 1.274329824416543460e-15
8.038152610441766655e+00 1.191000630429085616e-15
8.058232931726907466e+00 1.113089013020946277e-15
8.078313253012048278e+00 1.040245091736598977e-15
8.098393574297189090e+00 9.721414146941941232e-16
8.118473895582329902e+00 9.084715322878718204e-16
8.138554216867468938e+00 8.489486608467086319e-16
8.158634538152611526e+00 7.933044306242122077e-16
8.178714859437750562e+00 7.412877128409792880e-16
8.198795180722891374e+00 6.926635208300933390e-16
8.218875502008032186e+00 6.472119806425322932e-16
8.238955823293172998e+00 6.047273667578205777e-16
8.259036144578313809e+00 5.650171988161547337e-16
8.279116465863452845e+00 5.279013955421506766e-16
8.299196787148595433e+00 4.932114822687711729e-16
8.319277108433734469e+00 4.607898486937944167e-16
8.339357429718875281e+00 4.304890537108779154e-16
8.359437751004016093e+00 4.021711743544927432e-16
8.379518072289156905e+00 3.757071960824777518e-16
8.399598393574297717e+00 3.509764417934686472e-16
8.419678714859436752e+00 3.278660371389635721e-16
8.439759036144579341e+00 3.062704098422976037e-16
8.459839357429718376e+00 2.860908208799002171e-16
8.479919678714859188e+00 2.672349255142614873e-16
8.500000000000000000e+00 2.496163622940400194e-16
