# log10(T) rate(cm^3/s)
# Total Recomb Rates
3.500000000000000000e+00 5.809045036127831496e-12
3.520080321285140368e+00 5.640723662439355619e-12
3.540160642570281180e+00 5.480389340304832796e-12
3.560240963855421548e+00 5.327601418795875656e-12
3.580321285140562360e+00 5.181905761204116211e-12
3.600401606425702727e+00 5.042838542585314466e-12
3.620481927710843539e+00 4.909930700563149510e-12
3.640562248995983907e+00 4.782712814495810247e-12
3.660642570281124719e+00 4.660720185614444281e-12
3.680722891566265087e+00 4.543497900687989073e-12
3.700803212851405455e+00 4.430605682184833617e-12
3.720883534136546267e+00 4.321622356605719434e-12
3.740963855421686635e+00 4.216149807646893638e-12
3.761044176706827447e+00 4.113816320708367498e-12
3.781124497991967814e+00 4.014279269604330875e-12
3.801204819277108626e+00 3.917227146169264213e-12
3.821285140562248994e+00 3.822380991363224549e-12
3.841365461847389362e+00 3.729495356400435958e-12
3.861445783132530174e+00 3.638359008824641551e-12
3.881526104417670542e+00 3.548795704701557606e-12
3.901606425702811354e+00 3.460665474048990539e-12
3.921686746987951722e+00 3.373867005731430185e-12
3.941767068273092534e+00 3.288341854699126181e-12
3.961847389558232901e+00 3.204081302569442458e-12
3.981927710843373269e+00 3.121136746520125388e-12
4.002008032128514081e+00 3.039634430290226109e-12
4.022088353413654893e+00 2.959795125857449832e-12
4.042168674698794817e+00 2.881958998271753733e-12
4.062248995983935629e+00 2.806615335134259555e-12
4.082329317269076441e+00 2.734436123789678853e-12
4.102409638554217253e+00 2.666311676473790619e-12
4.122489959839357176e+00 2.603385732158874025e-12
4.142570281124497988e+00 2.547086821482243586e-12
4.162650602409638800e+00 2.499152290256842749e-12
4.182730923694778724e+00 2.461641342657056686e-12
4.202811244979919536e+00 2.436933852877767408e-12
4.222891566265060348e+00 2.427712512517710671e-12
4.242971887550201160e+00 2.436927072854086822e-12
4.263052208835341084e+00 2.467740885893817049e-12
4.283132530120481896e+00 2.523461476182099536e-12
4.303212851405622708e+00 2.607458293366572204e-12
4.323293172690762631e+00 2.723071916637433348e-12
4.343373493975903443e+00 2.873519657147591597e-12
4.363453815261044255e+00 3.061802646971901859e-12
4.383534136546185067e+00 3.290619104238678894e-12
4.403614457831324991e+00 3.562287593691902865e-12
4.423694779116465803e+00 3.878682896495776407e-12
4.443775100401606615e+00 4.241185741990742935e-12
4.463855421686746539e+00 4.650646329957581469e-12
4.483935742971887350e+00 5.107360459863365053e-12
4.504016064257028162e+00 5.611056315167983032e-12
4.524096385542168974e+00 6.160889597014517141e-12
4.544176706827309786e+00 6.755444766724293918e-12
4.564257028112449710e+00 7.392740582995838993e-12
4.584337349397590522e+00 8.070238802612097299e-12
4.604417670682730446e+00 8.784855720416955881e-12
4.624497991967871258e+00 9.532977017543064053e-12
4.644578313253012070e+00 1.031047704340153201e-11
4.664658634538152882e+00 1.111274408429339124e-11
4.684738955823293693e+00 1.193471331691682381e-11
4.704819277108433617e+00 1.277090899803553287e-11
4.724899598393574429e+00 1.361549703031541071e-11
4.744979919678714353e+00 1.446234842746373682e-11
4.765060240963855165e+00 1.530511345745755826e-11
4.785140562248995977e+00 1.613730545669726039e-11
4.805220883534136789e+00 1.695239256308871802e-11
4.825301204819277601e+00 1.774389498307893923e-11
4.845381526104417524e+00 1.850548493931431490e-11
4.865461847389558336e+00 1.923108617363016832e-11
4.885542168674698260e+00 1.991496981507319713e-11
4.905622489959839072e+00 2.055184355598482201e-11
4.925702811244979884e+00 2.113693138665755742e-11
4.945783132530120696e+00 2.166604158551908918e-11
4.965863453815261508e+00 2.213562120569951962e-11
4.985943775100401432e+00 2.254279589687172458e-11
5.006024096385542244e+00 2.288539451203180918e-11
5.026104417670682167e+00 2.316195853585131994e-11
5.046184738955822979e+00 2.337173690458608981e-11
5.066265060240963791e+00 2.351466724521468507e-11
5.086345381526104603e+00 2.359134492939053852e-11
5.106425702811245415e+00 2.360298160927837525e-11
5.126506024096385339e+00 2.355135507731507488e-11
5.146586345381526151e+00 2.343875237563509359e-11
5.166666666666666963e+00 2.326790808259209233e-11
5.186746987951806886e+00 2.304193963544762036e-11
5.206827309236947698e+00 2.276428142331548185e-11
5.226907630522088510e+00 2.243861921670549399e-11
5.246987951807229322e+00 2.206882630294413499e-11
5.267068273092369246e+00 2.165890248275241096e-11
5.287148594377510058e+00 2.121291686324168077e-11
5.307228915662650870e+00 2.073495516572659526e-11
5.327309236947790794e+00 2.022907206040325339e-11
5.347389558232931606e+00 1.969924884965424965e-11
5.367469879518072418e+00 1.914935665138230765e-11
5.387550200803213230e+00 1.858312508568562960e-11
5.407630522088353153e+00 1.800411634341038413e-11
5.427710843373493965e+00 1.741570441359769404e-11
5.447791164658634777e+00 1.682105916767876470e-11
5.467871485943774701e+00 1.622313493990637562e-11
5.487951807228915513e+00 1.562466320394750017e-11
5.508032128514056325e+00 1.502814892252479664e-11
5.528112449799197137e+00 1.443587013808913520e-11
5.548192771084337949e+00 1.384988037533715745e-11
5.568273092369477872e+00 1.327201343865373043e-11
5.588353413654618684e+00 1.270389020712425178e-11
5.608433734939758608e+00 1.214692705470382853e-11
5.628514056224899420e+00 1.160234555176082437e-11
5.648594377510040232e+00 1.107118313509793887e-11
5.668674698795181044e+00 1.055430446549395248e-11
5.688755020080321856e+00 1.005241322384292439e-11
5.708835341365461780e+00 9.566064128331026532e-12
5.728915662650602592e+00 9.095674985211116330e-12
5.748995983935742515e+00 8.641538614191359340e-12
5.769076305220883327e+00 8.203834515957344725e-12
5.789156626506024139e+00 7.782640173720373550e-12
5.809236947791164951e+00 7.377941902829945475e-12
5.829317269076305763e+00 6.989645182385251323e-12
5.849397590361445687e+00 6.617584420453549882e-12
5.869477911646586499e+00 6.261532120022618674e-12
5.889558232931726423e+00 5.921207426278477610e-12
5.909638554216867234e+00 5.596284047326889893e-12
5.929718875502008046e+00 5.286397550205353213e-12
5.949799196787148858e+00 4.991152042102234370e-12
5.969879518072289670e+00 4.710126253263974827e-12
5.989959839357429594e+00 4.442879043277706730e-12
6.010040160642570406e+00 4.188954356415269847e-12
6.030120481927710330e+00 3.947885654659825819e-12
6.050200803212851142e+00 3.719199859045247119e-12
6.070281124497991954e+00 3.502420831153903877e-12
6.090361445783132766e+00 3.297072427159398602e-12
6.110441767068273577e+00 3.102681156781712671e-12
6.130522088353413501e+00 2.918778479043193137e-12
6.150602409638554313e+00 2.744902765867171289e-12
6.170682730923694237e+00 2.580600963427787142e-12
6.190763052208835049e+00 2.425429979810428545e-12
6.210843373493975861e+00 2.278957826039695521e-12
6.230923694779116673e+00 2.140764535927011509e-12
6.251004016064257485e+00 2.010442888528612940e-12
6.271084337349397408e+00 1.887598955322101421e-12
6.291164658634538220e+00 1.771852492536451314e-12
6.311244979919678144e+00 1.662837197429891888e-12
6.331325301204818956e+00 1.560200845720535301e-12
6.351405622489959768e+00 1.463605325850588237e-12
6.371485943775100580e+00 1.372726584315331819e-12
6.391566265060241392e+00 1.287254494920595430e-12
6.411646586345381316e+00 1.206892663550187619e-12
6.431726907630522128e+00 1.131358178829968106e-12
6.451807228915662051e+00 1.060381317967763532e-12
6.471887550200802863e+00 9.937052160264844881e-13
6.491967871485943675e+00 9.310855059495834453e-13
6.512048192771084487e+00 8.722899357994645638e-13
6.532128514056225299e+00 8.170979688873805034e-13
6.552208835341365223e+00 7.653003717630451563e-13
6.572289156626506035e+00 7.166987943894394679e-13
6.592369477911645959e+00 6.711053462485526505e-13
6.612449799196786770e+00 6.283421716023579259e-13
6.632530120481927582e+00 5.882410266660759602e-13
6.652610441767068394e+00 5.506428610329696380e-13
6.672690763052209206e+00 5.153974053178238157e-13
6.692771084337350018e+00 4.823627666556434734e-13
6.712851405622489942e+00 4.514050333994102944e-13
6.732931726907629866e+00 4.223978901024099088e-13
6.753012048192770678e+00 3.952222436434844806e-13
6.773092369477911490e+00 3.697658611544807558e-13
6.793172690763052302e+00 3.459230202354425329e-13
6.813253012048193114e+00 3.235941717921471104e-13
6.833333333333333925e+00 3.026856157000089229e-13
6.853413654618473849e+00 2.831091893860672958e-13
6.873493975903614661e+00 2.647819693247398562e-13
6.893574297188754585e+00 2.476259853614876320e-13
6.913654618473895397e+00 2.315679477098242259e-13
6.933734939759036209e+00 2.165389864098348462e-13
6.953815261044177021e+00 2.024744029890819286e-13
6.973895582329317833e+00 1.893134340284001067e-13
6.993975903614457756e+00 1.769990263044314342e-13
7.014056224899598568e+00 1.654776231569094553e-13
7.034136546184738492e+00 1.546989617107860830e-13
7.054216867469879304e+00 1.446158805704891144e-13
7.074297188755020116e+00 1.351841375952800347e-13
7.094377510040160928e+00 1.263622373601307034e-13
7.114457831325301740e+00 1.181112679052924520e-13
7.134538152610441664e+00 1.103947463792372450e-13
7.154618473895582476e+00 1.031784731835004936e-13
7.174698795180722399e+00 9.643039423376815413e-14
7.194779116465863211e+00 9.012047095895656015e-14
7.214859437751004023e+00 8.422055766879078551e-14
7.234939759036144835e+00 7.870428593016336199e-14
7.255020080321285647e+00 7.354695560319133233e-14
7.275100401606425571e+00 6.872543219913695757e-14
7.295180722891566383e+00 6.421805023406868804e-14
7.315261044176706307e+00 6.000452226416450384e-14
7.335341365461847118e+00 5.606585330075324214e-14
7.355421686746987930e+00 5.238426031547677540e-14
7.375502008032128742e+00 4.894309655819879261e-14
7.395582329317269554e+00 4.572678042245234789e-14
7.415662650602409478e+00 4.272072860520715856e-14
7.435742971887550290e+00 3.991129331951375672e-14
7.455823293172690214e+00 3.728570333009923258e-14
7.475903614457831026e+00 3.483200859320047932e-14
7.495983935742971838e+00 3.253902829282028111e-14
7.516064257028112650e+00 3.039630207612996686e-14
7.536144578313252573e+00 2.839404430093137672e-14
7.556224899598393385e+00 2.652310111789776813e-14
7.576305220883534197e+00 2.477491021974747700e-14
7.596385542168675009e+00 2.314146309854942500e-14
7.616465863453814933e+00 2.161526966102916998e-14
7.636546184738955745e+00 2.018932506002880796e-14
7.656626506024096557e+00 1.885707860818753388e-14
7.676706827309237369e+00 1.761240464745117892e-14
7.696787148594377292e+00 1.644957525520455501e-14
7.716867469879518104e+00 1.536323467465103566e-14
7.736947791164658916e+00 1.434837536355645229e-14
7.757028112449798840e+00 1.340031556163378300e-14
7.777108433734939652e+00 1.251467828268892900e-14
7.797188755020080464e+00 1.168737164318256006e-14
7.817269076305221276e+00 1.091457044410192534e-14
7.837349397590361200e+00 1.019269892799451081e-14
7.857429718875502012e+00 9.518414637699525346e-15
7.877510040160642824e+00 8.888593307740222479e-15
7.897590361445782747e+00 8.300314723517379425e-15
7.917670682730923559e+00 7.750849487387518501e-15
7.937751004016064371e+00 7.237646634427172788e-15
7.957831325301205183e+00 6.758322044187928602e-15
7.977911646586345107e+00 6.310647598049039440e-15
7.997991967871485919e+00 5.892541034882368128e-15
8.018072289156627619e+00 5.502056460671050798e-15
8.038152610441766655e+00 5.137375470475918105e-15
8.058232931726907466e+00 4.796798843733217553e-15
8.078313253012048278e+00 4.478738776302899340e-15
8.098393574297189090e+00 4.181711614973515936e-15
8.118473895582329902e+00 3.904331062281623074e-15
8.138554216867468938e+00 3.645301821522757096e-15
8.158634538152611526e+00 3.403413653728067449e-15
8.178714859437750562e+00 3.177535820162298587e-15
8.198795180722891374e+00 2.966611885569206487e-15
8.218875502008032186e+00 2.769654858961214809e-15
8.238955823293172998e+00 2.585742650220151359e-15
8.259036144578313809e+00 2.414013822157907763e-15
8.279116465863452845e+00 2.253663618980232172e-15
8.299196787148595433e+00 2.103940253311179339e-15
8.319277108433734469e+00 1.964141435074521856e-15
8.339357429718875281e+00 1.833611126594740325e-15
8.359437751004016093e+00 1.711736509281594945e-15
8.379518072289156905e+00 1.597945148198376339e-15
8.399598393574297717e+00 1.491702341692992862e-15
8.419678714859436752e+00 1.392508644093478192e-15
8.439759036144579341e+00 1.299897550240286172e-15
8.459839357429718376e+00 1.213433331349941251e-15
8.479919678714859188e+00 1.132709012380193722e-15
8.500000000000000000e+00 1.057344481700749522e-15
