# log10(T) rate(cm^3/s)
# Total Recomb Rates
3.500000000000000000e+00 5.366001969220320277e-11
3.520080321285140368e+00 5.212207609529228547e-11
3.540160642570281180e+00 5.062609605473508301e-11
3.560240963855421548e+00 4.917100734291197153e-11
3.580321285140562360e+00 4.775576260635711076e-11
3.600401606425702727e+00 4.637933886076793056e-11
3.620481927710843539e+00 4.504073699535669198e-11
3.640562248995983907e+00 4.373898128630358122e-11
3.660642570281124719e+00 4.247311891907990032e-11
3.680722891566265087e+00 4.124221951942345089e-11
3.700803212851405455e+00 4.004537469275616180e-11
3.720883534136546267e+00 3.888169757184630366e-11
3.740963855421686635e+00 3.775032237252570407e-11
3.761044176706827447e+00 3.665040395728229745e-11
3.781124497991967814e+00 3.558111740655713207e-11
3.801204819277108626e+00 3.454165759758291836e-11
3.821285140562248994e+00 3.353123879060970727e-11
3.841365461847389362e+00 3.254909422236984011e-11
3.861445783132530174e+00 3.159447570664271877e-11
3.881526104417670542e+00 3.066665324178547073e-11
3.901606425702811354e+00 2.976491462510222636e-11
3.921686746987951722e+00 2.888856507393136943e-11
3.941767068273092534e+00 2.803692685333411864e-11
3.961847389558232901e+00 2.720933891027489368e-11
3.981927710843373269e+00 2.640515651418695019e-11
4.002008032128514081e+00 2.562375090382267127e-11
4.022088353413654893e+00 2.486450894029122488e-11
4.042168674698794817e+00 2.412683276619046800e-11
4.062248995983935629e+00 2.341013947074358418e-11
4.082329317269076441e+00 2.271386076085438268e-11
4.102409638554217253e+00 2.203744263799758767e-11
4.122489959839357176e+00 2.138034508086412677e-11
4.142570281124497988e+00 2.074204173368294652e-11
4.162650602409638800e+00 2.012201960014444005e-11
4.182730923694778724e+00 1.951977874285113108e-11
4.202811244979919536e+00 1.893483198822445749e-11
4.222891566265060348e+00 1.836670463679762181e-11
4.242971887550201160e+00 1.781493417882577525e-11
4.263052208835341084e+00 1.727907001514682752e-11
4.283132530120481896e+00 1.675867318322647551e-11
4.303212851405622708e+00 1.625331608832325051e-11
4.323293172690762631e+00 1.576258223970910916e-11
4.343373493975903443e+00 1.528606599188265070e-11
4.363453815261044255e+00 1.482337229071288318e-11
4.383534136546185067e+00 1.437411642445129017e-11
4.403614457831324991e+00 1.393792377955129172e-11
4.423694779116465803e+00 1.351442960123417122e-11
4.443775100401606615e+00 1.310327875874111598e-11
4.463855421686746539e+00 1.270412551521126878e-11
4.483935742971887350e+00 1.231663330212570643e-11
4.504016064257028162e+00 1.194047449825826346e-11
4.524096385542168974e+00 1.157533021307310594e-11
4.544176706827309786e+00 1.122089007451021730e-11
4.564257028112449710e+00 1.087685202109937489e-11
4.584337349397590522e+00 1.054292209834354505e-11
4.604417670682730446e+00 1.021881425931283250e-11
4.624497991967871258e+00 9.904250169389700436e-12
4.644578313253012070e+00 9.598959015106936401e-12
4.664658634538152882e+00 9.302677317019240049e-12
4.684738955823293693e+00 9.015148746549751407e-12
4.704819277108433617e+00 8.736123946752854438e-12
4.724899598393574429e+00 8.465360356934401678e-12
4.744979919678714353e+00 8.202622041071100268e-12
4.765060240963855165e+00 7.947679519970150213e-12
4.785140562248995977e+00 7.700309607111159547e-12
4.805220883534136789e+00 7.460295248111739030e-12
4.825301204819277601e+00 7.227425363758832558e-12
4.845381526104417524e+00 7.001494696547740079e-12
4.865461847389558336e+00 6.782303660670978844e-12
4.885542168674698260e+00 6.569658195399539168e-12
4.905622489959839072e+00 6.363369621798881673e-12
4.925702811244979884e+00 6.163254502722819466e-12
4.945783132530120696e+00 5.969134506028134658e-12
4.965863453815261508e+00 5.780836270953487074e-12
4.985943775100401432e+00 5.598191277606273170e-12
5.006024096385542244e+00 5.421035719501413054e-12
5.026104417670682167e+00 5.249210379096575047e-12
5.046184738955822979e+00 5.082560506268399713e-12
5.066265060240963791e+00 4.920935699675144781e-12
5.086345381526104603e+00 4.764189790951057693e-12
5.106425702811245415e+00 4.612180731678733266e-12
5.126506024096385339e+00 4.464770483085999105e-12
5.146586345381526151e+00 4.321824908414812504e-12
5.166666666666666963e+00 4.183213667911222907e-12
5.186746987951806886e+00 4.048810116388650433e-12
5.206827309236947698e+00 3.918491203324308911e-12
5.226907630522088510e+00 3.792137375465466137e-12
5.246987951807229322e+00 3.669632481958006428e-12
5.267068273092369246e+00 3.550863682083720895e-12
5.287148594377510058e+00 3.435721355834558232e-12
5.307228915662650870e+00 3.324099017813257923e-12
5.327309236947790794e+00 3.215893235404454031e-12
5.347389558232931606e+00 3.111003552918709620e-12
5.367469879518072418e+00 3.009332424622101899e-12
5.387550200803213230e+00 2.910785161421291044e-12
5.407630522088353153e+00 2.815269898720464604e-12
5.427710843373493965e+00 2.722697596880106090e-12
5.447791164658634777e+00 2.632982091071822782e-12
5.467871485943774701e+00 2.546040214358530287e-12
5.487951807228915513e+00 2.461792026576685121e-12
5.508032128514056325e+00 2.380161191749905057e-12
5.528112449799197137e+00 2.301075557463486262e-12
5.548192771084337949e+00 2.224467999278293568e-12
5.568273092369477872e+00 2.150277599419518563e-12
5.588353413654618684e+00 2.078451228439327518e-12
5.608433734939758608e+00 2.008945587699542898e-12
5.628514056224899420e+00 1.941729745931556893e-12
5.648594377510040232e+00 1.876788162448093480e-12
5.668674698795181044e+00 1.814124132450407605e-12
5.688755020080321856e+00 1.753763518752372695e-12
5.708835341365461780e+00 1.695758554823048427e-12
5.728915662650602592e+00 1.640191425106047459e-12
5.748995983935742515e+00 1.587177261126399893e-12
5.769076305220883327e+00 1.536866147755610897e-12
5.789156626506024139e+00 1.489443723922310175e-12
5.809236947791164951e+00 1.445129993787068959e-12
5.829317269076305763e+00 1.404176041092179349e-12
5.849397590361445687e+00 1.366858458602146850e-12
5.869477911646586499e+00 1.333471458100792391e-12
5.889558232931726423e+00 1.304316801199907278e-12
5.909638554216867234e+00 1.279691870760893276e-12
5.929718875502008046e+00 1.259876369262404466e-12
5.949799196787148858e+00 1.245118267153393652e-12
5.969879518072289670e+00 1.235619717335385624e-12
5.989959839357429594e+00 1.231523692258873356e-12
6.010040160642570406e+00 1.232902084051647524e-12
6.030120481927710330e+00 1.239745937639268782e-12
6.050200803212851142e+00 1.251958369092628990e-12
6.070281124497991954e+00 1.269350567560552815e-12
6.090361445783132766e+00 1.291641102764830161e-12
6.110441767068273577e+00 1.318458575748269282e-12
6.130522088353413501e+00 1.349347472421807134e-12
6.150602409638554313e+00 1.383776919704418020e-12
6.170682730923694237e+00 1.421151912244252709e-12
6.190763052208835049e+00 1.460826480209353005e-12
6.210843373493975861e+00 1.502118208484432171e-12
6.230923694779116673e+00 1.544323494745947495e-12
6.251004016064257485e+00 1.586732945604294099e-12
6.271084337349397408e+00 1.628646351563384732e-12
6.291164658634538220e+00 1.669386746870789233e-12
6.311244979919678144e+00 1.708313142658656366e-12
6.331325301204818956e+00 1.744831614279884540e-12
6.351405622489959768e+00 1.778404520022828771e-12
6.371485943775100580e+00 1.808557722830990282e-12
6.391566265060241392e+00 1.834885774676163692e-12
6.411646586345381316e+00 1.857055101386642447e-12
6.431726907630522128e+00 1.874805291712157434e-12
6.451807228915662051e+00 1.887948646978952505e-12
6.471887550200802863e+00 1.896368186553456670e-12
6.491967871485943675e+00 1.900014329962261919e-12
6.512048192771084487e+00 1.898900489969782176e-12
6.532128514056225299e+00 1.893097813662377815e-12
6.552208835341365223e+00 1.882729302343159929e-12
6.572289156626506035e+00 1.867963527620531268e-12
6.592369477911645959e+00 1.849008142275573533e-12
6.612449799196786770e+00 1.826103362012934797e-12
6.632530120481927582e+00 1.799515569562736715e-12
6.652610441767068394e+00 1.769531167125014291e-12
6.672690763052209206e+00 1.736450777924318917e-12
6.692771084337350018e+00 1.700583873532241537e-12
6.712851405622489942e+00 1.662243881262211428e-12
6.732931726907629866e+00 1.621743805786445531e-12
6.753012048192770678e+00 1.579392381435912639e-12
6.773092369477911490e+00 1.535490756538546271e-12
6.793172690763052302e+00 1.490329698626236170e-12
6.813253012048193114e+00 1.444187299301106078e-12
6.833333333333333925e+00 1.397327149831085958e-12
6.853413654618473849e+00 1.349996952932057559e-12
6.873493975903614661e+00 1.302427532448866550e-12
6.893574297188754585e+00 1.254832200517865221e-12
6.913654618473895397e+00 1.207406441026528198e-12
6.933734939759036209e+00 1.160327868537766928e-12
6.953815261044177021e+00 1.113756423089769000e-12
6.973895582329317833e+00 1.067834763209534393e-12
6.993975903614457756e+00 1.022688821905031729e-12
7.014056224899598568e+00 9.784284931668138796e-13
7.034136546184738492e+00 9.351484194785809307e-13
7.054216867469879304e+00 8.929288538939775283e-13
7.074297188755020116e+00 8.518365732921523145e-13
7.094377510040160928e+00 8.119258224044716924e-13
7.114457831325301740e+00 7.732392710544662448e-13
7.134538152610441664e+00 7.358089697323264370e-13
7.154618473895582476e+00 6.996572911070379071e-13
7.174698795180722399e+00 6.647978473472085772e-13
7.194779116465863211e+00 6.312363751681188775e-13
7.214859437751004023e+00 5.989715823473272038e-13
7.234939759036144835e+00 5.679959510589400076e-13
7.255020080321285647e+00 5.382964947768890270e-13
7.275100401606425571e+00 5.098554667020922705e-13
7.295180722891566383e+00 4.826510186913771593e-13
7.315261044176706307e+00 4.566578105227780693e-13
7.335341365461847118e+00 4.318475700379159049e-13
7.355421686746987930e+00 4.081896052736171140e-13
7.375502008032128742e+00 3.856512701468685468e-13
7.395582329317269554e+00 3.641983856046284461e-13
7.415662650602409478e+00 3.437956184065885314e-13
7.435742971887550290e+00 3.244068198876884921e-13
7.455823293172690214e+00 3.059953271597842163e-13
7.475903614457831026e+00 2.885242292689883473e-13
7.495983935742971838e+00 2.719566008365463131e-13
7.516064257028112650e+00 2.562557056850015688e-13
7.536144578313252573e+00 2.413851728955100329e-13
7.556224899598393385e+00 2.273091476628457915e-13
7.576305220883534197e+00 2.139924192176478647e-13
7.596385542168675009e+00 2.014005279754960224e-13
7.616465863453814933e+00 1.894998539536649750e-13
7.636546184738955745e+00 1.782576883721943968e-13
7.656626506024096557e+00 1.676422902291510014e-13
7.676706827309237369e+00 1.576229295128738764e-13
7.696787148594377292e+00 1.481699185885319284e-13
7.716867469879518104e+00 1.392546331738671448e-13
7.736947791164658916e+00 1.308495242007481394e-13
7.757028112449798840e+00 1.229281217458999604e-13
7.777108433734939652e+00 1.154650321065667502e-13
7.797188755020080464e+00 1.084359289952612154e-13
7.817269076305221276e+00 1.018175397323950589e-13
7.837349397590361200e+00 9.558762722659242306e-14
7.857429718875502012e+00 8.972496844980397923e-14
7.877510040160642824e+00 8.420933003789506904e-14
7.897590361445782747e+00 7.902144157697276496e-14
7.917670682730923559e+00 7.414296707115054811e-14
7.937751004016064371e+00 6.955647502844078907e-14
7.957831325301205183e+00 6.524540754772662411e-14
7.977911646586345107e+00 6.119404874101112000e-14
7.997991967871485919e+00 5.738749278103418629e-14
8.018072289156627619e+00 5.381161182459078238e-14
8.038152610441766655e+00 5.045302402614945832e-14
8.058232931726907466e+00 4.729906182436325233e-14
8.078313253012048278e+00 4.433774065549468599e-14
8.098393574297189090e+00 4.155772822232624712e-14
8.118473895582329902e+00 3.894831442458035795e-14
8.138554216867468938e+00 3.649938203692258410e-14
8.158634538152611526e+00 3.420137820305835056e-14
8.178714859437750562e+00 3.204528679902789883e-14
8.198795180722891374e+00 3.002260170532646739e-14
8.218875502008032186e+00 2.812530101578089371e-14
8.238955823293172998e+00 2.634582220095495144e-14
8.259036144578313809e+00 2.467703823513586341e-14
8.279116465863452845e+00 2.311223468847495714e-14
8.299196787148595433e+00 2.164508777950275776e-14
8.319277108433734469e+00 2.026964337788382652e-14
8.339357429718875281e+00 1.898029694279206446e-14
8.359437751004016093e+00 1.777177437860005791e-14
8.379518072289156905e+00 1.663911378655100468e-14
8.399598393574297717e+00 1.557764808867664852e-14
8.419678714859436752e+00 1.458298849833384157e-14
8.439759036144579341e+00 1.365100881030236915e-14
8.459839357429718376e+00 1.277783048235581113e-14
8.479919678714859188e+00 1.195980847952108260e-14
8.500000000000000000e+00 1.119351785185317793e-14
