# log10(T) rate(cm^3/s)
# Total Recomb Rates
3.500000000000000000e+00 7.042021231749622766e-12
3.520080321285140368e+00 6.801712436493260103e-12
3.540160642570281180e+00 6.569312176115143720e-12
3.560240963855421548e+00 6.344603564686354967e-12
3.580321285140562360e+00 6.127406129277328556e-12
3.600401606425702727e+00 5.917569331893328024e-12
3.620481927710843539e+00 5.714965990567121026e-12
3.640562248995983907e+00 5.519485697465522928e-12
3.660642570281124719e+00 5.331028360267006164e-12
3.680722891566265087e+00 5.149498014455334085e-12
3.700803212851405455e+00 4.974797065515078672e-12
3.720883534136546267e+00 4.806821119514828188e-12
3.740963855421686635e+00 4.645454547809183433e-12
3.761044176706827447e+00 4.490566907507258339e-12
3.781124497991967814e+00 4.342010306004635096e-12
3.801204819277108626e+00 4.199617758138406839e-12
3.821285140562248994e+00 4.063202541733970155e-12
3.841365461847389362e+00 3.932558514887203168e-12
3.861445783132530174e+00 3.807461319476717920e-12
3.881526104417670542e+00 3.687670362936306657e-12
3.901606425702811354e+00 3.572931446601062187e-12
3.921686746987951722e+00 3.462979896001263713e-12
3.941767068273092534e+00 3.357544048260241833e-12
3.961847389558232901e+00 3.256348966430682057e-12
3.981927710843373269e+00 3.159120282825326232e-12
4.002008032128514081e+00 3.065588126251595145e-12
4.022088353413654893e+00 2.975491164533870863e-12
4.042168674698794817e+00 2.888580895452918613e-12
4.062248995983935629e+00 2.804626444603763587e-12
4.082329317269076441e+00 2.723420270309143442e-12
4.102409638554217253e+00 2.644785318265219660e-12
4.122489959839357176e+00 2.568584287438647673e-12
4.142570281124497988e+00 2.494731730812729430e-12
4.162650602409638800e+00 2.423209681920696609e-12
4.182730923694778724e+00 2.354087334310394584e-12
4.202811244979919536e+00 2.287544980069594295e-12
4.222891566265060348e+00 2.223901928891452356e-12
4.242971887550201160e+00 2.163647501910802710e-12
4.263052208835341084e+00 2.107473476996083039e-12
4.283132530120481896e+00 2.056305635946026973e-12
4.303212851405622708e+00 2.011331431582085441e-12
4.323293172690762631e+00 1.974020363208812512e-12
4.343373493975903443e+00 1.946133520511608059e-12
4.363453815261044255e+00 1.929718997893786326e-12
4.383534136546185067e+00 1.927090519083519503e-12
4.403614457831324991e+00 1.940787619114334176e-12
4.423694779116465803e+00 1.973517028951038046e-12
4.443775100401606615e+00 2.028076374949236137e-12
4.463855421686746539e+00 2.107262791005166580e-12
4.483935742971887350e+00 2.213770388134712475e-12
4.504016064257028162e+00 2.350081590623129582e-12
4.524096385542168974e+00 2.518358018892516244e-12
4.544176706827309786e+00 2.720336812225409031e-12
4.564257028112449710e+00 2.957238027444904057e-12
4.584337349397590522e+00 3.229688061763501724e-12
4.604417670682730446e+00 3.537663011386974177e-12
4.624497991967871258e+00 3.880454603897584088e-12
4.644578313253012070e+00 4.256659957667349679e-12
4.664658634538152882e+00 4.664195049494921244e-12
4.684738955823293693e+00 5.100330520957023730e-12
4.704819277108433617e+00 5.561747408269210199e-12
4.724899598393574429e+00 6.044609593220623388e-12
4.744979919678714353e+00 6.544649266505346624e-12
4.765060240963855165e+00 7.057261464103841610e-12
4.785140562248995977e+00 7.577603754565986178e-12
4.805220883534136789e+00 8.100697377181098475e-12
4.825301204819277601e+00 8.621526507185796254e-12
4.845381526104417524e+00 9.135132802037232831e-12
4.865461847389558336e+00 9.636702913793671289e-12
4.885542168674698260e+00 1.012164719549530100e-11
4.905622489959839072e+00 1.058566835195418948e-11
4.925702811244979884e+00 1.102481926490296357e-11
4.945783132530120696e+00 1.143554964523085249e-11
4.965863453815261508e+00 1.181474152469853010e-11
4.985943775100401432e+00 1.215973389542298809e-11
5.006024096385542244e+00 1.246833704082582189e-11
5.026104417670682167e+00 1.273883728223546303e-11
5.046184738955822979e+00 1.296999299755595015e-11
5.066265060240963791e+00 1.316102285909843141e-11
5.086345381526104603e+00 1.331158729308853832e-11
5.106425702811245415e+00 1.342176418901914299e-11
5.126506024096385339e+00 1.349201988759885458e-11
5.146586345381526151e+00 1.352317645548464742e-11
5.166666666666666963e+00 1.351637621661991404e-11
5.186746987951806886e+00 1.347304445674106262e-11
5.206827309236947698e+00 1.339485115211570412e-11
5.226907630522088510e+00 1.328367249833322007e-11
5.246987951807229322e+00 1.314155293240825698e-11
5.267068273092369246e+00 1.297066825395000826e-11
5.287148594377510058e+00 1.277329036100352263e-11
5.307228915662650870e+00 1.255175402559008190e-11
5.327309236947790794e+00 1.230842604501586687e-11
5.347389558232931606e+00 1.204567701953062315e-11
5.367469879518072418e+00 1.176585592649430963e-11
5.387550200803213230e+00 1.147126758715364444e-11
5.407630522088353153e+00 1.116415305543515984e-11
5.427710843373493965e+00 1.084667289950285186e-11
5.447791164658634777e+00 1.052089329657733009e-11
5.467871485943774701e+00 1.018877481975534410e-11
5.487951807228915513e+00 9.852163762141349398e-12
5.508032128514056325e+00 9.512785818129054446e-12
5.528112449799197137e+00 9.172241923606644957e-12
5.548192771084337949e+00 8.832006045535432986e-12
5.568273092369477872e+00 8.493424706012660216e-12
5.588353413654618684e+00 8.157718025775687983e-12
5.608433734939758608e+00 7.825982076325062690e-12
5.628514056224899420e+00 7.499192337639353491e-12
5.648594377510040232e+00 7.178208069069303290e-12
5.668674698795181044e+00 6.863777413724992471e-12
5.688755020080321856e+00 6.556543070873927793e-12
5.708835341365461780e+00 6.257048385983265553e-12
5.728915662650602592e+00 5.965743723580801328e-12
5.748995983935742515e+00 5.682993003665999767e-12
5.769076305220883327e+00 5.409080297637192085e-12
5.789156626506024139e+00 5.144216394349058704e-12
5.809236947791164951e+00 4.888545260769526342e-12
5.829317269076305763e+00 4.642150334622860406e-12
5.849397590361445687e+00 4.405060598287072283e-12
5.869477911646586499e+00 4.177256394004330627e-12
5.889558232931726423e+00 3.958674950143621822e-12
5.909638554216867234e+00 3.749215596833550532e-12
5.929718875502008046e+00 3.548744656793466694e-12
5.949799196787148858e+00 3.357100003680443910e-12
5.969879518072289670e+00 3.174095285801806363e-12
5.989959839357429594e+00 2.999523817687002341e-12
6.010040160642570406e+00 2.833162145844969643e-12
6.030120481927710330e+00 2.674773298131533704e-12
6.050200803212851142e+00 2.524109728593043650e-12
6.070281124497991954e+00 2.380915971514529102e-12
6.090361445783132766e+00 2.244931019754563386e-12
6.110441767068273577e+00 2.115890443364747332e-12
6.130522088353413501e+00 1.993528265032193418e-12
6.150602409638554313e+00 1.877578609107679569e-12
6.170682730923694237e+00 1.767777140943518286e-12
6.190763052208835049e+00 1.663862313010959787e-12
6.210843373493975861e+00 1.565576433840529587e-12
6.230923694779116673e+00 1.472666575266378680e-12
6.251004016064257485e+00 1.384885332791155116e-12
6.271084337349397408e+00 1.301991453148521656e-12
6.291164658634538220e+00 1.223750342350547635e-12
6.311244979919678144e+00 1.149934466687179051e-12
6.331325301204818956e+00 1.080323658311390304e-12
6.351405622489959768e+00 1.014705336210965798e-12
6.371485943775100580e+00 9.528746525466877800e-13
6.391566265060241392e+00 8.946345735367272013e-13
6.411646586345381316e+00 8.397959032945739178e-13
6.431726907630522128e+00 7.881772582885031254e-13
6.451807228915662051e+00 7.396049993879720308e-13
6.471887550200802863e+00 6.939131277988438629e-13
6.491967871485943675e+00 6.509431505667328729e-13
6.512048192771084487e+00 6.105439207462111645e-13
6.532128514056225299e+00 5.725714567934497716e-13
6.552208835341365223e+00 5.368887452401303601e-13
6.572289156626506035e+00 5.033655302461917395e-13
6.592369477911645959e+00 4.718780932067767137e-13
6.612449799196786770e+00 4.423090252027970830e-13
6.632530120481927582e+00 4.145469947332315541e-13
6.652610441767068394e+00 3.884865128483686496e-13
6.672690763052209206e+00 3.640276975149583966e-13
6.692771084337350018e+00 3.410760387844074036e-13
6.712851405622489942e+00 3.195421661018162155e-13
6.732931726907629866e+00 2.993416188847952405e-13
6.753012048192770678e+00 2.803946213147018330e-13
6.773092369477911490e+00 2.626258621173207197e-13
6.793172690763052302e+00 2.459642799633455398e-13
6.813253012048193114e+00 2.303428549896178111e-13
6.833333333333333925e+00 2.156984068283503496e-13
6.853413654618473849e+00 2.019713994320503113e-13
6.873493975903614661e+00 1.891057528951805199e-13
6.893574297188754585e+00 1.770486623984872817e-13
6.913654618473895397e+00 1.657504243371617004e-13
6.933734939759036209e+00 1.551642696385842910e-13
6.953815261044177021e+00 1.452462042282198216e-13
6.973895582329317833e+00 1.359548565624824131e-13
6.993975903614457756e+00 1.272513321141629410e-13
7.014056224899598568e+00 1.190990746685895005e-13
7.034136546184738492e+00 1.114637342663852978e-13
7.054216867469879304e+00 1.043130416108512116e-13
7.074297188755020116e+00 9.761668874412421968e-14
7.094377510040160928e+00 9.134621578577903710e-14
7.114457831325301740e+00 8.547490352005875588e-14
7.134538152610441664e+00 7.997767161299349196e-14
7.154618473895582476e+00 7.483098223795322284e-14
7.174698795180722399e+00 7.001274888736140402e-14
7.194779116465863211e+00 6.550225014906410067e-14
7.214859437751004023e+00 6.128004822798931762e-14
7.234939759036144835e+00 5.732791199697145961e-14
7.255020080321285647e+00 5.362874436480713516e-14
7.275100401606425571e+00 5.016651375454123920e-14
7.295180722891566383e+00 4.692618949052495684e-14
7.315261044176706307e+00 4.389368089880499522e-14
7.335341365461847118e+00 4.105577993176867499e-14
7.355421686746987930e+00 3.840010713460828917e-14
7.375502008032128742e+00 3.591506077796247576e-14
7.395582329317269554e+00 3.358976898800035525e-14
7.415662650602409478e+00 3.141404471214919267e-14
7.435742971887550290e+00 2.937834336558928010e-14
7.455823293172690214e+00 2.747372301050206787e-14
7.475903614457831026e+00 2.569180692681746081e-14
7.495983935742971838e+00 2.402474843984564046e-14
7.516064257028112650e+00 2.246519787665543907e-14
7.536144578313252573e+00 2.100627152937353812e-14
7.556224899598393385e+00 1.964152250969635251e-14
7.576305220883534197e+00 1.836491338482831058e-14
7.596385542168675009e+00 1.717079049076943502e-14
7.616465863453814933e+00 1.605385982437444607e-14
7.636546184738955745e+00 1.500916442088386136e-14
7.656626506024096557e+00 1.403206312869008276e-14
7.676706827309237369e+00 1.311821069794298099e-14
7.696787148594377292e+00 1.226353910422786043e-14
7.716867469879518104e+00 1.146424003296160895e-14
7.736947791164658916e+00 1.071674845435867968e-14
7.757028112449798840e+00 1.001772722281820252e-14
7.777108433734939652e+00 9.364052638387195865e-15
7.797188755020080464e+00 8.752800911564520607e-15
7.817269076305221276e+00 8.181235476133415252e-15
7.837349397590361200e+00 7.646795097955892997e-15
7.857429718875502012e+00 7.147082730733419434e-15
7.877510040160642824e+00 6.679855072645040893e-15
7.897590361445782747e+00 6.243012780520885589e-15
7.917670682730923559e+00 5.834591300805059943e-15
7.937751004016064371e+00 5.452752279012718182e-15
7.957831325301205183e+00 5.095775511697966462e-15
7.977911646586345107e+00 4.762051407130758158e-15
7.997991967871485919e+00 4.450073922936319591e-15
8.018072289156627619e+00 4.158433950887864612e-15
8.038152610441766655e+00 3.885813120867187060e-15
8.058232931726907466e+00 3.630977997724963065e-15
8.078313253012048278e+00 3.392774646389322557e-15
8.098393574297189090e+00 3.170123542090232594e-15
8.118473895582329902e+00 2.962014803997967290e-15
8.138554216867468938e+00 2.767503731917405143e-15
8.158634538152611526e+00 2.585706626943139319e-15
8.178714859437750562e+00 2.415796878167783871e-15
8.198795180722891374e+00 2.257001298649829018e-15
8.218875502008032186e+00 2.108596694896066975e-15
8.238955823293172998e+00 1.969906655095434328e-15
8.259036144578313809e+00 1.840298542265259264e-15
8.279116465863452845e+00 1.719180679336903578e-15
8.299196787148595433e+00 1.605999714021038523e-15
8.319277108433734469e+00 1.500238152056077632e-15
8.339357429718875281e+00 1.401412048158526543e-15
8.359437751004016093e+00 1.309068844666481049e-15
8.379518072289156905e+00 1.222785348496483125e-15
8.399598393574297717e+00 1.142165837625292943e-15
8.419678714859436752e+00 1.066840288861846616e-15
8.439759036144579341e+00 9.964627191941380850e-16
8.459839357429718376e+00 9.307096334829486511e-16
8.479919678714859188e+00 8.692785717305480878e-16
8.500000000000000000e+00 8.118867495810630493e-16
