# log10(T) rate(cm^3/s)
# Total Recomb Rates
3.500000000000000000e+00 3.988895486023410080e-10
3.520080321285140368e+00 3.955294256496026168e-10
3.540160642570281180e+00 3.919608010859002767e-10
3.560240963855421548e+00 3.881292545646671201e-10
3.580321285140562360e+00 3.839907282119393801e-10
3.600401606425702727e+00 3.795114609667627456e-10
3.620481927710843539e+00 3.746677044377193486e-10
3.640562248995983907e+00 3.694452537133757283e-10
3.660642570281124719e+00 3.638388269113927056e-10
3.680722891566265087e+00 3.578513262855255966e-10
3.700803212851405455e+00 3.514930117889024734e-10
3.720883534136546267e+00 3.447806154567847185e-10
3.740963855421686635e+00 3.377364221200780654e-10
3.761044176706827447e+00 3.303873390276108537e-10
3.781124497991967814e+00 3.227639741046707742e-10
3.801204819277108626e+00 3.148997399007435979e-10
3.821285140562248994e+00 3.068299978122490526e-10
3.841365461847389362e+00 2.985912548909572329e-10
3.861445783132530174e+00 2.902204234218192015e-10
3.881526104417670542e+00 2.817541514210622368e-10
3.901606425702811354e+00 2.732282302181951193e-10
3.921686746987951722e+00 2.646770833128436499e-10
3.941767068273092534e+00 2.561333387313560551e-10
3.961847389558232901e+00 2.476274851657018715e-10
3.981927710843373269e+00 2.391876102962036904e-10
4.002008032128514081e+00 2.308392179326044535e-10
4.022088353413654893e+00 2.226051190136872550e-10
4.042168674698794817e+00 2.145053901410669736e-10
4.062248995983935629e+00 2.065573922354643306e-10
4.082329317269076441e+00 1.987758411267109197e-10
4.102409638554217253e+00 1.911729214369933883e-10
4.122489959839357176e+00 1.837584349869157882e-10
4.142570281124497988e+00 1.765399751248436398e-10
4.162650602409638800e+00 1.695231188161694976e-10
4.182730923694778724e+00 1.627116289842721717e-10
4.202811244979919536e+00 1.561076604162747247e-10
4.222891566265060348e+00 1.497119634791780208e-10
4.242971887550201160e+00 1.435240808820230899e-10
4.263052208835341084e+00 1.375425337185143665e-10
4.283132530120481896e+00 1.317649939898436889e-10
4.303212851405622708e+00 1.261884417054598262e-10
4.323293172690762631e+00 1.208093054652186811e-10
4.343373493975903443e+00 1.156235861238157280e-10
4.363453815261044255e+00 1.106269637203754864e-10
4.383534136546185067e+00 1.058148883234632514e-10
4.403614457831324991e+00 1.011826558029398594e-10
4.423694779116465803e+00 9.672546980974598466e-11
4.443775100401606615e+00 9.243849144281937382e-11
4.463855421686746539e+00 8.831687823192294131e-11
4.483935742971887350e+00 8.435581418946007817e-11
4.504016064257028162e+00 8.055053280276735181e-11
4.524096385542168974e+00 7.689633496160739235e-11
4.544176706827309786e+00 7.338860394059676103e-11
4.564257028112449710e+00 7.002281966229796407e-11
4.584337349397590522e+00 6.679457451397657069e-11
4.604417670682730446e+00 6.369959292388735208e-11
4.624497991967871258e+00 6.073375665793262530e-11
4.644578313253012070e+00 5.789313731642541417e-11
4.664658634538152882e+00 5.517403675657469079e-11
4.684738955823293693e+00 5.257303513968703033e-11
4.704819277108433617e+00 5.008704505265256496e-11
4.724899598393574429e+00 4.771336878414965113e-11
4.744979919678714353e+00 4.544975449728374491e-11
4.765060240963855165e+00 4.329444591221818549e-11
4.785140562248995977e+00 4.124621937929256247e-11
4.805220883534136789e+00 3.930440204402648531e-11
4.825301204819277601e+00 3.746886528482978078e-11
4.845381526104417524e+00 3.573998877049659122e-11
4.865461847389558336e+00 3.411859227926431319e-11
4.885542168674698260e+00 3.260583470228279928e-11
4.905622489959839072e+00 3.120308221222271317e-11
4.925702811244979884e+00 2.991175016212475580e-11
4.945783132530120696e+00 2.873312563178270762e-11
4.965863453815261508e+00 2.766817942498719306e-11
4.985943775100401432e+00 2.671737755986211821e-11
5.006024096385542244e+00 2.588050277811510627e-11
5.026104417670682167e+00 2.515649630063725580e-11
5.046184738955822979e+00 2.454332902877082402e-11
5.066265060240963791e+00 2.403790975115108520e-11
5.086345381526104603e+00 2.363603582990446082e-11
5.106425702811245415e+00 2.333238949420605037e-11
5.126506024096385339e+00 2.312058044983792175e-11
5.146586345381526151e+00 2.299323318591330965e-11
5.166666666666666963e+00 2.294211525591090187e-11
5.186746987951806886e+00 2.295830102153649604e-11
5.206827309236947698e+00 2.303236392837266785e-11
5.226907630522088510e+00 2.315458935392769934e-11
5.246987951807229322e+00 2.331519943150090323e-11
5.267068273092369246e+00 2.350458099413758780e-11
5.287148594377510058e+00 2.371350788230857812e-11
5.307228915662650870e+00 2.393334929378441584e-11
5.327309236947790794e+00 2.415625659743887874e-11
5.347389558232931606e+00 2.437532205066638441e-11
5.367469879518072418e+00 2.458470410933872895e-11
5.387550200803213230e+00 2.477971544526687532e-11
5.407630522088353153e+00 2.495687132453261026e-11
5.427710843373493965e+00 2.511389758025365638e-11
5.447791164658634777e+00 2.524969896431001693e-11
5.467871485943774701e+00 2.536429011882934656e-11
5.487951807228915513e+00 2.545869271487734090e-11
5.508032128514056325e+00 2.553480342123716929e-11
5.528112449799197137e+00 2.559523826245950824e-11
5.548192771084337949e+00 2.564315958645767985e-11
5.568273092369477872e+00 2.568209228066237984e-11
5.588353413654618684e+00 2.571573605090951273e-11
5.608433734939758608e+00 2.574778051144151039e-11
5.628514056224899420e+00 2.578172953353372145e-11
5.648594377510040232e+00 2.582074077430508078e-11
5.668674698795181044e+00 2.586748557220240443e-11
5.688755020080321856e+00 2.592403347550601698e-11
5.708835341365461780e+00 2.599176459864018589e-11
5.728915662650602592e+00 2.607131182163978934e-11
5.748995983935742515e+00 2.616253361300760462e-11
5.769076305220883327e+00 2.626451702338691132e-11
5.789156626506024139e+00 2.637560922675698785e-11
5.809236947791164951e+00 2.649347493417696044e-11
5.829317269076305763e+00 2.661517612198186743e-11
5.849397590361445687e+00 2.673726983998180431e-11
5.869477911646586499e+00 2.685591941979197131e-11
5.889558232931726423e+00 2.696701419774442409e-11
5.909638554216867234e+00 2.706629289456840800e-11
5.929718875502008046e+00 2.714946603522252011e-11
5.949799196787148858e+00 2.721233321592631424e-11
5.969879518072289670e+00 2.725089159278057171e-11
5.989959839357429594e+00 2.726143263430684211e-11
6.010040160642570406e+00 2.724062490482080851e-11
6.030120481927710330e+00 2.718558138496411563e-11
6.050200803212851142e+00 2.709391055269061570e-11
6.070281124497991954e+00 2.696375111154057866e-11
6.090361445783132766e+00 2.679379083939372980e-11
6.110441767068273577e+00 2.658327052388762664e-11
6.130522088353413501e+00 2.633197434143592630e-11
6.150602409638554313e+00 2.604020832299169394e-11
6.170682730923694237e+00 2.570876873466531161e-11
6.190763052208835049e+00 2.533890229272714322e-11
6.210843373493975861e+00 2.493226014128821044e-11
6.230923694779116673e+00 2.449084745994911246e-11
6.251004016064257485e+00 2.401697045178168469e-11
6.271084337349397408e+00 2.351318230304633807e-11
6.291164658634538220e+00 2.298222951827760781e-11
6.311244979919678144e+00 2.242699982982808154e-11
6.331325301204818956e+00 2.185047267014390356e-11
6.351405622489959768e+00 2.125567298673336003e-11
6.371485943775100580e+00 2.064562898097228175e-11
6.391566265060241392e+00 2.002333416783487636e-11
6.411646586345381316e+00 1.939171398799666688e-11
6.431726907630522128e+00 1.875359705875877023e-11
6.451807228915662051e+00 1.811169102689457533e-11
6.471887550200802863e+00 1.746856288482191723e-11
6.491967871485943675e+00 1.682662353067516346e-11
6.512048192771084487e+00 1.618811629151530733e-11
6.532128514056225299e+00 1.555510908530229928e-11
6.552208835341365223e+00 1.492948986933644375e-11
6.572289156626506035e+00 1.431296500851827454e-11
6.592369477911645959e+00 1.370706019383201111e-11
6.612449799196786770e+00 1.311312354784779459e-11
6.632530120481927582e+00 1.253233056782054374e-11
6.652610441767068394e+00 1.196569057635907027e-11
6.672690763052209206e+00 1.141405437307246836e-11
6.692771084337350018e+00 1.087812280669358843e-11
6.712851405622489942e+00 1.035845601476516988e-11
6.732931726907629866e+00 9.855483106081732866e-12
6.753012048192770678e+00 9.369512088926633436e-12
6.773092369477911490e+00 8.900739875112612306e-12
6.793172690763052302e+00 8.449262215463021490e-12
6.813253012048193114e+00 8.015083446327599783e-12
6.833333333333333925e+00 7.598125948789943556e-12
6.853413654618473849e+00 7.198239242269270771e-12
6.873493975903614661e+00 6.815208652196374175e-12
6.893574297188754585e+00 6.448763507365873395e-12
6.913654618473895397e+00 6.098584836491522658e-12
6.933734939759036209e+00 5.764312545516030362e-12
6.953815261044177021e+00 5.445552067467505875e-12
6.973895582329317833e+00 5.141880485250949003e-12
6.993975903614457756e+00 4.852852134857706726e-12
7.014056224899598568e+00 4.578003702218659756e-12
7.034136546184738492e+00 4.316858831465941978e-12
7.054216867469879304e+00 4.068932265845745855e-12
7.074297188755020116e+00 3.833733545079679798e-12
7.094377510040160928e+00 3.610770284729992794e-12
7.114457831325301740e+00 3.399551064205237070e-12
7.134538152610441664e+00 3.199587950554048774e-12
7.154618473895582476e+00 3.010398685233775766e-12
7.174698795180722399e+00 2.831508560694840575e-12
7.194779116465863211e+00 2.662452012967020782e-12
7.214859437751004023e+00 2.502773955539055136e-12
7.234939759036144835e+00 2.352030878744706537e-12
7.255020080321285647e+00 2.209791737658459423e-12
7.275100401606425571e+00 2.075638650203659962e-12
7.295180722891566383e+00 1.949167425821555937e-12
7.315261044176706307e+00 1.829987943670973338e-12
7.335341365461847118e+00 1.717724397949044234e-12
7.355421686746987930e+00 1.612015426564086473e-12
7.375502008032128742e+00 1.512514138066514262e-12
7.395582329317269554e+00 1.418888050465809829e-12
7.415662650602409478e+00 1.330818954338963562e-12
7.435742971887550290e+00 1.248002711475240840e-12
7.455823293172690214e+00 1.170148999207758726e-12
7.475903614457831026e+00 1.096981009556236882e-12
7.495983935742971838e+00 1.028235111348902926e-12
7.516064257028112650e+00 9.636604826039004193e-13
7.536144578313252573e+00 9.030187196311699912e-13
7.556224899598393385e+00 8.460834285621477129e-13
7.576305220883534197e+00 7.926398043246431500e-13
7.596385542168675009e+00 7.424842014507275578e-13
7.616465863453814933e+00 6.954237005334940283e-13
7.636546184738955745e+00 6.512756736305234887e-13
7.656626506024096557e+00 6.098673514445673306e-13
7.676706827309237369e+00 5.710353946916930498e-13
7.696787148594377292e+00 5.346254716907152527e-13
7.716867469879518104e+00 5.004918438715658384e-13
7.736947791164658916e+00 4.684969606013083188e-13
7.757028112449798840e+00 4.385110644614511429e-13
7.777108433734939652e+00 4.104118078763382076e-13
7.797188755020080464e+00 3.840838817866917189e-13
7.817269076305221276e+00 3.594186568822944864e-13
7.837349397590361200e+00 3.363138377509485454e-13
7.857429718875502012e+00 3.146731301648030552e-13
7.877510040160642824e+00 2.944059216079230734e-13
7.897590361445782747e+00 2.754269750485104668e-13
7.917670682730923559e+00 2.576561358737941435e-13
7.937751004016064371e+00 2.410180518335733098e-13
7.957831325301205183e+00 2.254419057782032815e-13
7.977911646586345107e+00 2.108611609271891320e-13
7.997991967871485919e+00 1.972133183641425819e-13
8.018072289156627619e+00 1.844396864216327376e-13
8.038152610441766655e+00 1.724851615943357190e-13
8.058232931726907466e+00 1.612980206000042546e-13
8.078313253012048278e+00 1.508297231943207305e-13
8.098393574297189090e+00 1.410347253368329609e-13
8.118473895582329902e+00 1.318703023004148492e-13
8.138554216867468938e+00 1.232963813153024317e-13
8.158634538152611526e+00 1.152753833402968927e-13
8.178714859437750562e+00 1.077720735577405668e-13
8.198795180722891374e+00 1.007534201948680458e-13
8.218875502008032186e+00 9.418846128192559042e-14
8.238955823293172998e+00 8.804817896649155596e-14
8.259036144578313809e+00 8.230538101367485658e-14
8.279116465863452845e+00 7.693458913290678738e-14
8.299196787148595433e+00 7.191193378375347149e-14
8.319277108433734469e+00 6.721505512536350647e-14
8.339357429718875281e+00 6.282300978662914692e-14
8.359437751004016093e+00 5.871618314684672311e-14
8.379518072289156905e+00 5.487620682935889445e-14
8.399598393574297717e+00 5.128588112339009980e-14
8.419678714859436752e+00 4.792910206186799558e-14
8.439759036144579341e+00 4.479079289543534484e-14
8.459839357429718376e+00 4.185683971504269593e-14
8.479919678714859188e+00 3.911403098739105880e-14
8.500000000000000000e+00 3.655000077909923696e-14
