# log10(T) rate(cm^3/s)
# Total Recomb Rates
3.500000000000000000e+00 1.908380968455709602e-11
3.520080321285140368e+00 1.850472159018918158e-11
3.540160642570281180e+00 1.794184269958618892e-11
3.560240963855421548e+00 1.739476603724110816e-11
3.580321285140562360e+00 1.686309346517520123e-11
3.600401606425702727e+00 1.634643551517217042e-11
3.620481927710843539e+00 1.584441122481048500e-11
3.640562248995983907e+00 1.535664797714575219e-11
3.660642570281124719e+00 1.488278134389860523e-11
3.680722891566265087e+00 1.442245493200982721e-11
3.700803212851405455e+00 1.397532023342842316e-11
3.720883534136546267e+00 1.354103647800404110e-11
3.740963855421686635e+00 1.311927048936002221e-11
3.761044176706827447e+00 1.270969654362812584e-11
3.781124497991967814e+00 1.231199623093157998e-11
3.801204819277108626e+00 1.192585831950756322e-11
3.821285140562248994e+00 1.155097862236571584e-11
3.841365461847389362e+00 1.118705986638368822e-11
3.861445783132530174e+00 1.083381156374620651e-11
3.881526104417670542e+00 1.049094988563843344e-11
3.901606425702811354e+00 1.015819753810939045e-11
3.921686746987951722e+00 9.835283640025870470e-12
3.941767068273092534e+00 9.521943603041587313e-12
3.961847389558232901e+00 9.217919013511117026e-12
3.981927710843373269e+00 8.922957516281977152e-12
4.002008032128514081e+00 8.636812700302907011e-12
4.022088353413654893e+00 8.359243985990118422e-12
4.042168674698794817e+00 8.090016514297339779e-12
4.062248995983935629e+00 7.828901037439111435e-12
4.082329317269076441e+00 7.575673811220819658e-12
4.102409638554217253e+00 7.330116488931780436e-12
4.122489959839357176e+00 7.092016016761620002e-12
4.142570281124497988e+00 6.861164530702993911e-12
4.162650602409638800e+00 6.637359254906945126e-12
4.182730923694778724e+00 6.420402401459726756e-12
4.202811244979919536e+00 6.210101071552945909e-12
4.222891566265060348e+00 6.006267158021302054e-12
4.242971887550201160e+00 5.808717249224363826e-12
4.263052208835341084e+00 5.617272534251413949e-12
4.283132530120481896e+00 5.431758709430129520e-12
4.303212851405622708e+00 5.252005886122032213e-12
4.323293172690762631e+00 5.077848499789211680e-12
4.343373493975903443e+00 4.909125220318514551e-12
4.363453815261044255e+00 4.745678863591029599e-12
4.383534136546185067e+00 4.587356304285736085e-12
4.403614457831324991e+00 4.434008389907696868e-12
4.423694779116465803e+00 4.285489856032047871e-12
4.443775100401606615e+00 4.141659242756197133e-12
4.463855421686746539e+00 4.002378812353301737e-12
4.483935742971887350e+00 3.867514468120924602e-12
4.504016064257028162e+00 3.736935674419499303e-12
4.524096385542168974e+00 3.610515377895561490e-12
4.544176706827309786e+00 3.488129929885294728e-12
4.564257028112449710e+00 3.369659009994267408e-12
4.584337349397590522e+00 3.254985550849429169e-12
4.604417670682730446e+00 3.143995664019771359e-12
4.624497991967871258e+00 3.036578567101949413e-12
4.644578313253012070e+00 2.932626511967513993e-12
4.664658634538152882e+00 2.832034714168061701e-12
4.684738955823293693e+00 2.734701283494835888e-12
4.704819277108433617e+00 2.640527155689014865e-12
4.724899598393574429e+00 2.549416025298802420e-12
4.744979919678714353e+00 2.461274279679333782e-12
4.765060240963855165e+00 2.376010934130940042e-12
4.785140562248995977e+00 2.293537568171363281e-12
4.805220883534136789e+00 2.213768262936878564e-12
4.825301204819277601e+00 2.136619539707226021e-12
4.845381526104417524e+00 2.062010299548765087e-12
4.865461847389558336e+00 1.989861764069929806e-12
4.885542168674698260e+00 1.920097417282771618e-12
4.905622489959839072e+00 1.852642948563846594e-12
4.925702811244979884e+00 1.787426196707581263e-12
4.945783132530120696e+00 1.724377095064760476e-12
4.965863453815261508e+00 1.663427617759066051e-12
4.985943775100401432e+00 1.604511726975456323e-12
5.006024096385542244e+00 1.547565321317589182e-12
5.026104417670682167e+00 1.492526185240782261e-12
5.046184738955822979e+00 1.439333939589487044e-12
5.066265060240963791e+00 1.387929993319402126e-12
5.086345381526104603e+00 1.338257496591804199e-12
5.106425702811245415e+00 1.290261295641348407e-12
5.126506024096385339e+00 1.243887890218274079e-12
5.146586345381526151e+00 1.199085395114154984e-12
5.166666666666666963e+00 1.155803508469824181e-12
5.186746987951806886e+00 1.113993491460600121e-12
5.206827309236947698e+00 1.073608166826457987e-12
5.226907630522088510e+00 1.034601947844302871e-12
5.246987951807229322e+00 9.969309149608928122e-13
5.267068273092369246e+00 9.605529645145909857e-13
5.287148594377510058e+00 9.254280626028348657e-13
5.307228915662650870e+00 8.915186466179418594e-13
5.327309236947790794e+00 8.587902261377180153e-13
5.347389558232931606e+00 8.272122419323789987e-13
5.367469879518072418e+00 7.967592444174275171e-13
5.387550200803213230e+00 7.674124480801702017e-13
5.407630522088353153e+00 7.391617033172052164e-13
5.427710843373493965e+00 7.120078993546009218e-13
5.447791164658634777e+00 6.859657703390557956e-13
5.467871485943774701e+00 6.610670220931416505e-13
5.487951807228915513e+00 6.373636326956263560e-13
5.508032128514056325e+00 6.149311118770027643e-13
5.528112449799197137e+00 5.938714403913487365e-13
5.548192771084337949e+00 5.743153606278320517e-13
5.568273092369477872e+00 5.564236634347853394e-13
5.588353413654618684e+00 5.403871216425977274e-13
5.608433734939758608e+00 5.264247632732506129e-13
5.628514056224899420e+00 5.147802578927324310e-13
5.648594377510040232e+00 5.057163041651481935e-13
5.668674698795181044e+00 4.995070468890113519e-13
5.688755020080321856e+00 4.964287053088259791e-13
5.708835341365461780e+00 4.967487466325621294e-13
5.728915662650602592e+00 5.007140742836189014e-13
5.748995983935742515e+00 5.085388057162037400e-13
5.769076305220883327e+00 5.203922789482502620e-13
5.789156626506024139e+00 5.363879439250654499e-13
5.809236947791164951e+00 5.565737629083903082e-13
5.829317269076305763e+00 5.809246666016720814e-13
5.849397590361445687e+00 6.093374971705818399e-13
5.869477911646586499e+00 6.416287263029940804e-13
5.889558232931726423e+00 6.775350783574329508e-13
5.909638554216867234e+00 7.167170282491020330e-13
5.929718875502008046e+00 7.587649929207596603e-13
5.949799196787148858e+00 8.032079040577831311e-13
5.969879518072289670e+00 8.495237455753040152e-13
5.989959839357429594e+00 8.971515668681024778e-13
6.010040160642570406e+00 9.455044435012077608e-13
6.030120481927710330e+00 9.939828499255357723e-13
6.050200803212851142e+00 1.041987930755894186e-12
6.070281124497991954e+00 1.088934203389990408e-12
6.090361445783132766e+00 1.134261289551274423e-12
6.110441767068273577e+00 1.177444350599254555e-12
6.130522088353413501e+00 1.218002985192664467e-12
6.150602409638554313e+00 1.255508432669757245e-12
6.170682730923694237e+00 1.289589006697389594e-12
6.190763052208835049e+00 1.319933757686884374e-12
6.210843373493975861e+00 1.346294426567356649e-12
6.230923694779116673e+00 1.368485805142385127e-12
6.251004016064257485e+00 1.386384658743072543e-12
6.271084337349397408e+00 1.399927395316347051e-12
6.291164658634538220e+00 1.409106682154606761e-12
6.311244979919678144e+00 1.413967218335579375e-12
6.331325301204818956e+00 1.414600869046429893e-12
6.351405622489959768e+00 1.411141358912312264e-12
6.371485943775100580e+00 1.403758706868699320e-12
6.391566265060241392e+00 1.392653566580217980e-12
6.411646586345381316e+00 1.378051615358701150e-12
6.431726907630522128e+00 1.360198112237521739e-12
6.451807228915662051e+00 1.339352723386173554e-12
6.471887550200802863e+00 1.315784691258899700e-12
6.491967871485943675e+00 1.289768403421196548e-12
6.512048192771084487e+00 1.261579398356740301e-12
6.532128514056225299e+00 1.231490829025039361e-12
6.552208835341365223e+00 1.199770390673109731e-12
6.572289156626506035e+00 1.166677707440244564e-12
6.592369477911645959e+00 1.132462162577487436e-12
6.612449799196786770e+00 1.097361149506244602e-12
6.632530120481927582e+00 1.061598715288245206e-12
6.652610441767068394e+00 1.025384564164857722e-12
6.672690763052209206e+00 9.889133864252460179e-13
6.692771084337350018e+00 9.523644767533760687e-13
6.712851405622489942e+00 9.159016061627793815e-13
6.732931726907629866e+00 8.796731124466803803e-13
6.753012048192770678e+00 8.438121755584276521e-13
6.773092369477911490e+00 8.084372463216442032e-13
6.793172690763052302e+00 7.736525992012756593e-13
6.813253012048193114e+00 7.395489824173112136e-13
6.833333333333333925e+00 7.062043413449079911e-13
6.853413654618473849e+00 6.736845938302265627e-13
6.873493975903614661e+00 6.420444386906932668e-13
6.893574297188754585e+00 6.113281812080108313e-13
6.913654618473895397e+00 5.815705618223959337e-13
6.933734939759036209e+00 5.527975764699285655e-13
6.953815261044177021e+00 5.250272790540081205e-13
6.973895582329317833e+00 4.982705583980347461e-13
6.993975903614457756e+00 4.725318836871652765e-13
7.014056224899598568e+00 4.478100138754918970e-13
7.034136546184738492e+00 4.240986678183065703e-13
7.054216867469879304e+00 4.013871529971336410e-13
7.074297188755020116e+00 3.796609516500362610e-13
7.094377510040160928e+00 3.589022639143124510e-13
7.114457831325301740e+00 3.390905082470815919e-13
7.134538152610441664e+00 3.202027799252099965e-13
7.154618473895582476e+00 3.022142688532723404e-13
7.174698795180722399e+00 2.850986382399688340e-13
7.194779116465863211e+00 2.688283659519546908e-13
7.214859437751004023e+00 2.533750505311178048e-13
7.234939759036144835e+00 2.387096839774041772e-13
7.255020080321285647e+00 2.248028934641924535e-13
7.275100401606425571e+00 2.116251541754957066e-13
7.295180722891566383e+00 1.991469754417329609e-13
7.315261044176706307e+00 1.873390623102633280e-13
7.335341365461847118e+00 1.761724546242179305e-13
7.355421686746987930e+00 1.656186456036473107e-13
7.375502008032128742e+00 1.556496818309145361e-13
7.395582329317269554e+00 1.462382464414803295e-13
7.415662650602409478e+00 1.373577272148055057e-13
7.435742971887550290e+00 1.289822711507023445e-13
7.455823293172690214e+00 1.210868270062393612e-13
7.475903614457831026e+00 1.136471771589560884e-13
7.495983935742971838e+00 1.066399600550993923e-13
7.516064257028112650e+00 1.000426843978570168e-13
7.536144578313252573e+00 9.383373613100895670e-14
7.556224899598393385e+00 8.799237917857412126e-14
7.576305220883534197e+00 8.249875081133372199e-14
7.596385542168675009e+00 7.733385242677369706e-14
7.616465863453814933e+00 7.247953645015766235e-14
7.636546184738955745e+00 6.791848999109658425e-14
7.656626506024096557e+00 6.363421582208062774e-14
7.676706827309237369e+00 5.961101118282405467e-14
7.696787148594377292e+00 5.583394485678982851e-14
7.716867469879518104e+00 5.228883291366066877e-14
7.736947791164658916e+00 4.896221346358564681e-14
7.757028112449798840e+00 4.584132072547623360e-14
7.777108433734939652e+00 4.291405867220163511e-14
7.797188755020080464e+00 4.016897447995141484e-14
7.817269076305221276e+00 3.759523197702486687e-14
7.837349397590361200e+00 3.518258525861293611e-14
7.857429718875502012e+00 3.292135260848721201e-14
7.877510040160642824e+00 3.080239084566232744e-14
7.897590361445782747e+00 2.881707019380713370e-14
7.917670682730923559e+00 2.695724975322894418e-14
7.937751004016064371e+00 2.521525363942634804e-14
7.957831325301205183e+00 2.358384783829943403e-14
7.977911646586345107e+00 2.205621781594461645e-14
7.997991967871485919e+00 2.062594691036366683e-14
8.018072289156627619e+00 1.928699552323158807e-14
8.038152610441766655e+00 1.803368112194354797e-14
8.058232931726907466e+00 1.686065905536781655e-14
8.078313253012048278e+00 1.576290418094832268e-14
8.098393574297189090e+00 1.473569329590347178e-14
8.118473895582329902e+00 1.377458836117504141e-14
8.138554216867468938e+00 1.287542050338142741e-14
8.158634538152611526e+00 1.203427477725111057e-14
8.178714859437750562e+00 1.124747566877777470e-14
8.198795180722891374e+00 1.051157331757241776e-14
8.218875502008032186e+00 9.823330435547199815e-15
8.238955823293172998e+00 9.179709898071143818e-15
8.259036144578313809e+00 8.577862983065429437e-15
8.279116465863452845e+00 8.015118233094403428e-15
8.299196787148595433e+00 7.488970915327847161e-15
8.319277108433734469e+00 6.997073054265114697e-15
8.339357429718875281e+00 6.537224012286900883e-15
8.359437751004016093e+00 6.107361593419894661e-15
8.379518072289156905e+00 5.705553646124942398e-15
8.399598393574297717e+00 5.329990141444450498e-15
8.419678714859436752e+00 4.978975703441222175e-15
8.439759036144579341e+00 4.650922569517675238e-15
8.459839357429718376e+00 4.344343958907622478e-15
8.479919678714859188e+00 4.057847828366815603e-15
8.500000000000000000e+00 3.790130994850333106e-15
