# log10(T) rate(cm^3/s)
# Total Recomb Rates
3.500000000000000000e+00 9.243290716877783088e-11
3.520080321285140368e+00 8.982020925078135226e-11
3.540160642570281180e+00 8.727525014818530247e-11
3.560240963855421548e+00 8.479644415979260160e-11
3.580321285140562360e+00 8.238223940955876771e-11
3.600401606425702727e+00 8.003111711202004171e-11
3.620481927710843539e+00 7.774159085732712732e-11
3.640562248995983907e+00 7.551220591535322489e-11
3.660642570281124719e+00 7.334153855834583888e-11
3.680722891566265087e+00 7.122819540160210136e-11
3.700803212851405455e+00 6.917081276164926631e-11
3.720883534136546267e+00 6.716805603142136168e-11
3.740963855421686635e+00 6.521861907192759969e-11
3.761044176706827447e+00 6.332122361991484128e-11
3.781124497991967814e+00 6.147461871103499255e-11
3.801204819277108626e+00 5.967758011803361324e-11
3.821285140562248994e+00 5.792890980348475488e-11
3.841365461847389362e+00 5.622743538660456157e-11
3.861445783132530174e+00 5.457200962368491007e-11
3.881526104417670542e+00 5.296150990169596554e-11
3.901606425702811354e+00 5.139483774461586752e-11
3.921686746987951722e+00 4.987091833205551211e-11
3.941767068273092534e+00 4.838870002975416444e-11
3.961847389558232901e+00 4.694715393153316395e-11
3.981927710843373269e+00 4.554527341230317323e-11
4.002008032128514081e+00 4.418207369173218224e-11
4.022088353413654893e+00 4.285659140819025578e-11
4.042168674698794817e+00 4.156788420259893523e-11
4.062248995983935629e+00 4.031503031182255635e-11
4.082329317269076441e+00 3.909712817125166982e-11
4.102409638554217253e+00 3.791329602623706168e-11
4.122489959839357176e+00 3.676267155204634486e-11
4.142570281124497988e+00 3.564441148202470253e-11
4.162650602409638800e+00 3.455769124365432094e-11
4.182730923694778724e+00 3.350170460221573489e-11
4.202811244979919536e+00 3.247566331176815122e-11
4.222891566265060348e+00 3.147879677317604583e-11
4.242971887550201160e+00 3.051035169891970143e-11
4.263052208835341084e+00 2.956959178444006509e-11
4.283132530120481896e+00 2.865579738577780718e-11
4.303212851405622708e+00 2.776826520327895852e-11
4.323293172690762631e+00 2.690630797114839456e-11
4.343373493975903443e+00 2.606925415264429708e-11
4.363453815261044255e+00 2.525644764071745161e-11
4.383534136546185067e+00 2.446724746390747136e-11
4.403614457831324991e+00 2.370102749732034659e-11
4.423694779116465803e+00 2.295717617851950804e-11
4.443775100401606615e+00 2.223509622817357322e-11
4.463855421686746539e+00 2.153420437531163077e-11
4.483935742971887350e+00 2.085393108704674461e-11
4.504016064257028162e+00 2.019372030263704117e-11
4.524096385542168974e+00 1.955302917176092659e-11
4.544176706827309786e+00 1.893132779689213079e-11
4.564257028112449710e+00 1.832809897966714208e-11
4.584337349397590522e+00 1.774283797114499826e-11
4.604417670682730446e+00 1.717505222586670603e-11
4.624497991967871258e+00 1.662426115962732811e-11
4.644578313253012070e+00 1.608999591088129636e-11
4.664658634538152882e+00 1.557179910570594905e-11
4.684738955823293693e+00 1.506922462625518208e-11
4.704819277108433617e+00 1.458183738263955064e-11
4.724899598393574429e+00 1.410921308817435292e-11
4.744979919678714353e+00 1.365093803794194878e-11
4.765060240963855165e+00 1.320660889061844967e-11
4.785140562248995977e+00 1.277583245351940137e-11
4.805220883534136789e+00 1.235822547082230387e-11
4.825301204819277601e+00 1.195341441492736088e-11
4.845381526104417524e+00 1.156103528092102737e-11
4.865461847389558336e+00 1.118073338410951036e-11
4.885542168674698260e+00 1.081216316059217785e-11
4.905622489959839072e+00 1.045498797084671777e-11
4.925702811244979884e+00 1.010887990630048042e-11
4.945783132530120696e+00 9.773519598863689625e-12
4.965863453815261508e+00 9.448596033402142078e-12
4.985943775100401432e+00 9.133806363128293510e-12
5.006024096385542244e+00 8.828855727890667833e-12
5.026104417670682167e+00 8.533457075342864546e-12
5.046184738955822979e+00 8.247330984973682087e-12
5.066265060240963791e+00 7.970205494981199622e-12
5.086345381526104603e+00 7.701815931973509463e-12
5.106425702811245415e+00 7.441904743479632440e-12
5.126506024096385339e+00 7.190221333254087971e-12
5.146586345381526151e+00 6.946521899358756964e-12
5.166666666666666963e+00 6.710569275005830792e-12
5.186746987951806886e+00 6.482132772145217905e-12
5.206827309236947698e+00 6.260988027779795816e-12
5.226907630522088510e+00 6.046916852991766111e-12
5.246987951807229322e+00 5.839707084662570468e-12
5.267068273092369246e+00 5.639152439868886191e-12
5.287148594377510058e+00 5.445052372936460501e-12
5.307228915662650870e+00 5.257211935133247122e-12
5.327309236947790794e+00 5.075441636982545380e-12
5.347389558232931606e+00 4.899557313176427592e-12
5.367469879518072418e+00 4.729379990069215492e-12
5.387550200803213230e+00 4.564735755730106452e-12
5.407630522088353153e+00 4.405455632534011496e-12
5.427710843373493965e+00 4.251375452270293929e-12
5.447791164658634777e+00 4.102335733752182403e-12
5.467871485943774701e+00 3.958181562918394352e-12
5.487951807228915513e+00 3.818762475441013274e-12
5.508032128514056325e+00 3.683932341905342780e-12
5.528112449799197137e+00 3.553549255737467214e-12
5.548192771084337949e+00 3.427475424276680271e-12
5.568273092369477872e+00 3.305577063806991470e-12
5.588353413654618684e+00 3.187724300105165968e-12
5.608433734939758608e+00 3.073791077315616784e-12
5.628514056224899420e+00 2.963655079963380035e-12
5.648594377510040232e+00 2.857197675948665347e-12
5.668674698795181044e+00 2.754303892723250870e-12
5.688755020080321856e+00 2.654862444777934940e-12
5.708835341365461780e+00 2.558765838179580604e-12
5.728915662650602592e+00 2.465910587037107505e-12
5.748995983935742515e+00 2.376197586899538096e-12
5.769076305220883327e+00 2.289532700108873794e-12
5.789156626506024139e+00 2.205827616324910554e-12
5.809236947791164951e+00 2.125001055443875270e-12
5.829317269076305763e+00 2.046980377086492860e-12
5.849397590361445687e+00 1.971703647702779546e-12
5.869477911646586499e+00 1.899122190460046981e-12
5.889558232931726423e+00 1.829203602812769895e-12
5.909638554216867234e+00 1.761935172117738536e-12
5.929718875502008046e+00 1.697327553331669440e-12
5.949799196787148858e+00 1.635418499848811392e-12
5.969879518072289670e+00 1.576276366566620370e-12
5.989959839357429594e+00 1.520003042833694641e-12
6.010040160642570406e+00 1.466735932272921658e-12
6.030120481927710330e+00 1.416648586035219059e-12
6.050200803212851142e+00 1.369949622896082893e-12
6.070281124497991954e+00 1.326879637046748534e-12
6.090361445783132766e+00 1.287705901025449130e-12
6.110441767068273577e+00 1.252714810573436750e-12
6.130522088353413501e+00 1.222202179377337238e-12
6.150602409638554313e+00 1.196461660440889450e-12
6.170682730923694237e+00 1.175771731336479287e-12
6.190763052208835049e+00 1.160381817220056139e-12
6.210843373493975861e+00 1.150498224802182039e-12
6.230923694779116673e+00 1.146270612699878493e-12
6.251004016064257485e+00 1.147779723713223647e-12
6.271084337349397408e+00 1.155027052647264010e-12
6.291164658634538220e+00 1.167927024263355832e-12
6.311244979919678144e+00 1.186302118791493847e-12
6.331325301204818956e+00 1.209881219048524139e-12
6.351405622489959768e+00 1.238301276967237661e-12
6.371485943775100580e+00 1.271112221728954955e-12
6.391566265060241392e+00 1.307784869037241790e-12
6.411646586345381316e+00 1.347721451571751071e-12
6.431726907630522128e+00 1.390268281742228919e-12
6.451807228915662051e+00 1.434729983881600475e-12
6.471887550200802863e+00 1.480384695302914755e-12
6.491967871485943675e+00 1.526499632802621036e-12
6.512048192771084487e+00 1.572346449600149283e-12
6.532128514056225299e+00 1.617215862117181059e-12
6.552208835341365223e+00 1.660431100194291168e-12
6.572289156626506035e+00 1.701359821717754430e-12
6.592369477911645959e+00 1.739424226739126931e-12
6.612449799196786770e+00 1.774109201141132958e-12
6.632530120481927582e+00 1.804968410730161478e-12
6.652610441767068394e+00 1.831628349357469888e-12
6.672690763052209206e+00 1.853790416435425417e-12
6.692771084337350018e+00 1.871231158252672477e-12
6.712851405622489942e+00 1.883800853021181662e-12
6.732931726907629866e+00 1.891420651672550317e-12
6.753012048192770678e+00 1.894078505802375825e-12
6.773092369477911490e+00 1.891824122083652641e-12
6.793172690763052302e+00 1.884763180509270825e-12
6.813253012048193114e+00 1.873051043735785234e-12
6.833333333333333925e+00 1.856886168391131030e-12
6.853413654618473849e+00 1.836503408228452697e-12
6.873493975903614661e+00 1.812167375074979440e-12
6.893574297188754585e+00 1.784165998071813086e-12
6.913654618473895397e+00 1.752804395944613437e-12
6.933734939759036209e+00 1.718399151975854727e-12
6.953815261044177021e+00 1.681273057730596460e-12
6.973895582329317833e+00 1.641750369972595319e-12
6.993975903614457756e+00 1.600152605958683682e-12
7.014056224899598568e+00 1.556794885614999441e-12
7.034136546184738492e+00 1.511982815040306996e-12
7.054216867469879304e+00 1.466009894301270308e-12
7.074297188755020116e+00 1.419155423451386190e-12
7.094377510040160928e+00 1.371682873928631179e-12
7.114457831325301740e+00 1.323838687737944674e-12
7.134538152610441664e+00 1.275851463853073104e-12
7.154618473895582476e+00 1.227931489820954142e-12
7.174698795180722399e+00 1.180270576367835945e-12
7.194779116465863211e+00 1.133042153649040847e-12
7.214859437751004023e+00 1.086401589431824586e-12
7.234939759036144835e+00 1.040486691752457828e-12
7.255020080321285647e+00 9.954183612685747249e-13
7.275100401606425571e+00 9.513013614836989338e-13
7.295180722891566383e+00 9.082251781250088874e-13
7.315261044176706307e+00 8.662649421025496637e-13
7.335341365461847118e+00 8.254823935839100706e-13
7.355421686746987930e+00 7.859268677177251187e-13
7.375502008032128742e+00 7.476362853831367808e-13
7.395582329317269554e+00 7.106381349965126572e-13
7.415662650602409478e+00 6.749504338487344213e-13
7.435742971887550290e+00 6.405826596641919177e-13
7.455823293172690214e+00 6.075366450621838440e-13
7.475903614457831026e+00 5.758074293650267156e-13
7.495983935742971838e+00 5.453840637423438616e-13
7.516064257028112650e+00 5.162503670184298226e-13
7.536144578313252573e+00 4.883856306130228691e-13
7.556224899598393385e+00 4.617652720501686792e-13
7.576305220883534197e+00 4.363614372712378019e-13
7.596385542168675009e+00 4.121435526426926944e-13
7.616465863453814933e+00 3.890788280730911088e-13
7.636546184738955745e+00 3.671327130624450244e-13
7.656626506024096557e+00 3.462693078152656853e-13
7.676706827309237369e+00 3.264517317700892822e-13
7.696787148594377292e+00 3.076424520458023775e-13
7.716867469879518104e+00 2.898035743901115967e-13
7.736947791164658916e+00 2.728970992485803473e-13
7.757028112449798840e+00 2.568851455629675567e-13
7.777108433734939652e+00 2.417301448635106186e-13
7.797188755020080464e+00 2.273950081483813390e-13
7.817269076305221276e+00 2.138432679511150272e-13
7.837349397590361200e+00 2.010391978887538760e-13
7.857429718875502012e+00 1.889479118642800936e-13
7.877510040160642824e+00 1.775354449705450442e-13
7.897590361445782747e+00 1.667688180124849075e-13
7.917670682730923559e+00 1.566160874326453710e-13
7.937751004016064371e+00 1.470463822940240317e-13
7.957831325301205183e+00 1.380299298456747433e-13
7.977911646586345107e+00 1.295380710717860865e-13
7.997991967871485919e+00 1.215432675049984127e-13
8.018072289156627619e+00 1.140191004703438763e-13
8.038152610441766655e+00 1.069402638178565352e-13
8.058232931726907466e+00 1.002825510999499936e-13
8.078313253012048278e+00 9.402283805426871406e-14
8.098393574297189090e+00 8.813906116385577763e-14
8.118473895582329902e+00 8.261019298418554537e-14
8.138554216867468938e+00 7.741621485063540349e-14
8.158634538152611526e+00 7.253808751016798138e-14
8.178714859437750562e+00 6.795772015710286273e-14
8.198795180722891374e+00 6.365793829454066510e-14
8.218875502008032186e+00 5.962245079005727583e-14
8.238955823293172998e+00 5.583581644624956516e-14
8.259036144578313809e+00 5.228341036339913581e-14
8.279116465863452845e+00 4.895139033250305840e-14
8.299196787148595433e+00 4.582666346192597868e-14
8.319277108433734469e+00 4.289685320964241477e-14
8.339357429718875281e+00 4.015026696512652351e-14
8.359437751004016093e+00 3.757586430019207105e-14
8.379518072289156905e+00 3.516322598612227532e-14
8.399598393574297717e+00 3.290252385509285025e-14
8.419678714859436752e+00 3.078449156687618017e-14
8.439759036144579341e+00 2.880039632692747890e-14
8.459839357429718376e+00 2.694201158898408822e-14
8.479919678714859188e+00 2.520159076404301313e-14
8.500000000000000000e+00 2.357184194788566236e-14
