# log10(T) rate(cm^3/s)
# Total Recomb Rates
3.500000000000000000e+00 2.465333064049104379e-11
3.520080321285140368e+00 2.412575421531427309e-11
3.540160642570281180e+00 2.360976356038122391e-11
3.560240963855421548e+00 2.310495906471291412e-11
3.580321285140562360e+00 2.261154787663775551e-11
3.600401606425702727e+00 2.213032146729799631e-11
3.620481927710843539e+00 2.166260904234739489e-11
3.640562248995983907e+00 2.121020725236762556e-11
3.660642570281124719e+00 2.077528798247246820e-11
3.680722891566265087e+00 2.036028737103811503e-11
3.700803212851405455e+00 1.996778048518544549e-11
3.720883534136546267e+00 1.960034713905092745e-11
3.740963855421686635e+00 1.926043507356147784e-11
3.761044176706827447e+00 1.895022705179396415e-11
3.781124497991967814e+00 1.867151833381576324e-11
3.801204819277108626e+00 1.842561049638211291e-11
3.821285140562248994e+00 1.821322671430736102e-11
3.841365461847389362e+00 1.803445251107633573e-11
3.861445783132530174e+00 1.788870472258698834e-11
3.881526104417670542e+00 1.777473010699346371e-11
3.901606425702811354e+00 1.769063376834760094e-11
3.921686746987951722e+00 1.763393640919338451e-11
3.941767068273092534e+00 1.760165842337988543e-11
3.961847389558232901e+00 1.759042799238041191e-11
3.981927710843373269e+00 1.759660964518683502e-11
4.002008032128514081e+00 1.761644916974970618e-11
4.022088353413654893e+00 1.764623032409196835e-11
4.042168674698794817e+00 1.768243851634861681e-11
4.062248995983935629e+00 1.772192656379963467e-11
4.082329317269076441e+00 1.776207787821123163e-11
4.102409638554217253e+00 1.780096302657602003e-11
4.122489959839357176e+00 1.783748660554695022e-11
4.142570281124497988e+00 1.787152268545616687e-11
4.162650602409638800e+00 1.790403856051786411e-11
4.182730923694778724e+00 1.793720791435988337e-11
4.202811244979919536e+00 1.797451542940813779e-11
4.222891566265060348e+00 1.802085497975796181e-11
4.242971887550201160e+00 1.808262256955888006e-11
4.263052208835341084e+00 1.816780299428187037e-11
4.283132530120481896e+00 1.828604592201389747e-11
4.303212851405622708e+00 1.844872308479108037e-11
4.323293172690762631e+00 1.866895413600552647e-11
4.343373493975903443e+00 1.896158522086375590e-11
4.363453815261044255e+00 1.934310220470258186e-11
4.383534136546185067e+00 1.983146048030304023e-11
4.403614457831324991e+00 2.044581575990721105e-11
4.423694779116465803e+00 2.120614534253981942e-11
4.443775100401606615e+00 2.213275674655847511e-11
4.463855421686746539e+00 2.324568967024661094e-11
4.483935742971887350e+00 2.456402707584317111e-11
4.504016064257028162e+00 2.610514072305430600e-11
4.524096385542168974e+00 2.788390464342378672e-11
4.544176706827309786e+00 2.991191592371272936e-11
4.564257028112449710e+00 3.219676508744823814e-11
4.584337349397590522e+00 3.474139799204808036e-11
4.604417670682730446e+00 3.754360751291409758e-11
4.624497991967871258e+00 4.059568671721419277e-11
4.644578313253012070e+00 4.388426636160539921e-11
4.664658634538152882e+00 4.739034918579503278e-11
4.684738955823293693e+00 5.108954250647969899e-11
4.704819277108433617e+00 5.495247991826612708e-11
4.724899598393574429e+00 5.894541325592029402e-11
4.744979919678714353e+00 6.303094798186768942e-11
4.765060240963855165e+00 6.716888925360970889e-11
4.785140562248995977e+00 7.131716230846855791e-11
4.805220883534136789e+00 7.543276949065807177e-11
4.825301204819277601e+00 7.947274708012096020e-11
4.845381526104417524e+00 8.339508777357870636e-11
4.865461847389558336e+00 8.715959883654219033e-11
4.885542168674698260e+00 9.072867116582612034e-11
4.905622489959839072e+00 9.406794034432371835e-11
4.925702811244979884e+00 9.714682682835187291e-11
4.945783132530120696e+00 9.993894832791385258e-11
4.965863453815261508e+00 1.024224029323588608e-10
4.985943775100401432e+00 1.045799263817950716e-10
5.006024096385542244e+00 1.063989309452933106e-10
5.026104417670682167e+00 1.078714365660780148e-10
5.046184738955822979e+00 1.089939072571550622e-10
5.066265060240963791e+00 1.097670072128099811e-10
5.086345381526104603e+00 1.101952918140155101e-10
5.106425702811245415e+00 1.102868487464597054e-10
5.126506024096385339e+00 1.100529039309705436e-10
5.146586345381526151e+00 1.095074060055345301e-10
5.166666666666666963e+00 1.086666018119771690e-10
5.186746987951806886e+00 1.075486138372367896e-10
5.206827309236947698e+00 1.061730289360646294e-10
5.226907630522088510e+00 1.045605060020645718e-10
5.246987951807229322e+00 1.027324086254335336e-10
5.267068273092369246e+00 1.007104672317823005e-10
5.287148594377510058e+00 9.851647377601479908e-11
5.307228915662650870e+00 9.617201079457162717e-11
5.327309236947790794e+00 9.369821551334002333e-11
5.347389558232931606e+00 9.111557877277655375e-11
5.367469879518072418e+00 8.844377776432360662e-11
5.387550200803213230e+00 8.570154096529124597e-11
5.407630522088353153e+00 8.290654320115353819e-11
5.427710843373493965e+00 8.007532844001902483e-11
5.447791164658634777e+00 7.722325771769933478e-11
5.467871485943774701e+00 7.436447948653232986e-11
5.487951807228915513e+00 7.151191966033661240e-11
5.508032128514056325e+00 6.867728867574003758e-11
5.528112449799197137e+00 6.587110299195458086e-11
5.548192771084337949e+00 6.310271859361803615e-11
5.568273092369477872e+00 6.038037423287363614e-11
5.588353413654618684e+00 5.771124233732336191e-11
5.608433734939758608e+00 5.510148571135622414e-11
5.628514056224899420e+00 5.255631836259034790e-11
5.648594377510040232e+00 5.008006898717131819e-11
5.668674698795181044e+00 4.767624584303558490e-11
5.688755020080321856e+00 4.534760192572800442e-11
5.708835341365461780e+00 4.309619953462011800e-11
5.728915662650602592e+00 4.092347347690656275e-11
5.748995983935742515e+00 3.883029230172094992e-11
5.769076305220883327e+00 3.681701708680091374e-11
5.789156626506024139e+00 3.488355741549304618e-11
5.809236947791164951e+00 3.302942428296180654e-11
5.829317269076305763e+00 3.125377975797530186e-11
5.849397590361445687e+00 2.955548330144432791e-11
5.869477911646586499e+00 2.793313470597913050e-11
5.889558232931726423e+00 2.638511367314286618e-11
5.909638554216867234e+00 2.490961608787619068e-11
5.929718875502008046e+00 2.350468708380823115e-11
5.949799196787148858e+00 2.216825101985427780e-11
5.969879518072289670e+00 2.089813850861154309e-11
5.989959839357429594e+00 1.969211065149164309e-11
6.010040160642570406e+00 1.854788064510991774e-11
6.030120481927710330e+00 1.746313292894627049e-11
6.050200803212851142e+00 1.643554004637841192e-11
6.070281124497991954e+00 1.546277739048550504e-11
6.090361445783132766e+00 1.454253600305703585e-11
6.110441767068273577e+00 1.367253359050013133e-11
6.130522088353413501e+00 1.285052391422191810e-11
6.150602409638554313e+00 1.207430470592629536e-11
6.170682730923694237e+00 1.134172425040746712e-11
6.190763052208835049e+00 1.065068677009422916e-11
6.210843373493975861e+00 9.999156737015660822e-12
6.230923694779116673e+00 9.385162229185796472e-12
6.251004016064257485e+00 8.806797439789617893e-12
6.271084337349397408e+00 8.262224439101115558e-12
6.291164658634538220e+00 7.749674280866482115e-12
6.311244979919678144e+00 7.267447537006922695e-12
6.331325301204818956e+00 6.813914336982802164e-12
6.351405622489959768e+00 6.387513981050213454e-12
6.371485943775100580e+00 5.986754189948950705e-12
6.391566265060241392e+00 5.610210047301899017e-12
6.411646586345381316e+00 5.256522685178820774e-12
6.431726907630522128e+00 4.924397757879646394e-12
6.451807228915662051e+00 4.612603744013401182e-12
6.471887550200802863e+00 4.319970112374007916e-12
6.491967871485943675e+00 4.045385382928704843e-12
6.512048192771084487e+00 3.787795110416826893e-12
6.532128514056225299e+00 3.546199814588702403e-12
6.552208835341365223e+00 3.319652877973110820e-12
6.572289156626506035e+00 3.107258429226712519e-12
6.592369477911645959e+00 2.908169227568430208e-12
6.612449799196786770e+00 2.721584561514216804e-12
6.632530120481927582e+00 2.546748173083759355e-12
6.652610441767068394e+00 2.382946216828882819e-12
6.672690763052209206e+00 2.229505261416721311e-12
6.692771084337350018e+00 2.085790340069671241e-12
6.712851405622489942e+00 1.951203054902907245e-12
6.732931726907629866e+00 1.825179739092408259e-12
6.753012048192770678e+00 1.707189679837705766e-12
6.773092369477911490e+00 1.596733404239804043e-12
6.793172690763052302e+00 1.493341029483688649e-12
6.813253012048193114e+00 1.396570678084702070e-12
6.833333333333333925e+00 1.306006958418036615e-12
6.853413654618473849e+00 1.221259510291088602e-12
6.873493975903614661e+00 1.141961614930321298e-12
6.893574297188754585e+00 1.067768868429689814e-12
6.913654618473895397e+00 9.983579174388367473e-13
6.933734939759036209e+00 9.334252556501144026e-13
6.953815261044177021e+00 8.726860794672556889e-13
6.973895582329317833e+00 8.158732011005102539e-13
6.993975903614457756e+00 7.627360172278859548e-13
7.014056224899598568e+00 7.130395312856936624e-13
7.034136546184738492e+00 6.665634273999758892e-13
7.054216867469879304e+00 6.231011939399380393e-13
7.074297188755020116e+00 5.824592946624621262e-13
7.094377510040160928e+00 5.444563854199804560e-13
7.114457831325301740e+00 5.089225744204086090e-13
7.134538152610441664e+00 4.756987240550524292e-13
7.154618473895582476e+00 4.446357923466510403e-13
7.174698795180722399e+00 4.155942121133717301e-13
7.194779116465863211e+00 3.884433059940143576e-13
7.214859437751004023e+00 3.630607355339392997e-13
7.234939759036144835e+00 3.393319825888487827e-13
7.255020080321285647e+00 3.171498613639159852e-13
7.275100401606425571e+00 2.964140594678053500e-13
7.295180722891566383e+00 2.770307064242779640e-13
7.315261044176706307e+00 2.589119681477222734e-13
7.335341365461847118e+00 2.419756659525033590e-13
7.355421686746987930e+00 2.261449187292054708e-13
7.375502008032128742e+00 2.113478069831069669e-13
7.395582329317269554e+00 1.975170574914649574e-13
7.415662650602409478e+00 1.845897473960207966e-13
7.435742971887550290e+00 1.725070266054444912e-13
7.455823293172690214e+00 1.612138574390615094e-13
7.475903614457831026e+00 1.506587704979806447e-13
7.495983935742971838e+00 1.407936358026809475e-13
7.516064257028112650e+00 1.315734482870363164e-13
7.536144578313252573e+00 1.229561267877449044e-13
7.556224899598393385e+00 1.149023257150756265e-13
7.576305220883534197e+00 1.073752586358134844e-13
7.596385542168675009e+00 1.003405330422368657e-13
7.616465863453814933e+00 9.376599562197770501e-14
7.636546184738955745e+00 8.762158738267967652e-14
7.656626506024096557e+00 8.187920802256411456e-14
7.676706827309237369e+00 7.651258897335548582e-14
7.696787148594377292e+00 7.149717457559310636e-14
7.716867469879518104e+00 6.681001087818994225e-14
7.736947791164658916e+00 6.242964158427809703e-14
7.757028112449798840e+00 5.833601069394215030e-14
7.777108433734939652e+00 5.451037142147543381e-14
7.797188755020080464e+00 5.093520099034132715e-14
7.817269076305221276e+00 4.759412093315093470e-14
7.837349397590361200e+00 4.447182254675572477e-14
7.857429718875502012e+00 4.155399717404078702e-14
7.877510040160642824e+00 3.882727100426953861e-14
7.897590361445782747e+00 3.627914410291919292e-14
7.917670682730923559e+00 3.389793339993011240e-14
7.937751004016064371e+00 3.167271938221743611e-14
7.957831325301205183e+00 2.959329625221477567e-14
7.977911646586345107e+00 2.765012532919912509e-14
7.997991967871485919e+00 2.583429148422219744e-14
8.018072289156627619e+00 2.413746241270418947e-14
8.038152610441766655e+00 2.255185056117070480e-14
8.058232931726907466e+00 2.107017753628193920e-14
8.078313253012048278e+00 1.968564083526062306e-14
8.098393574297189090e+00 1.839188274709622952e-14
8.118473895582329902e+00 1.718296128355195275e-14
8.138554216867468938e+00 1.605332300804046138e-14
8.158634538152611526e+00 1.499777763891367084e-14
8.178714859437750562e+00 1.401147431166221323e-14
8.198795180722891374e+00 1.308987939196254761e-14
8.218875502008032186e+00 1.222875573849688266e-14
8.238955823293172998e+00 1.142414332099972706e-14
8.259036144578313809e+00 1.067234110511313605e-14
8.279116465863452845e+00 9.969890121363086914e-15
8.299196787148595433e+00 9.313557640936843570e-15
8.319277108433734469e+00 8.700322385966990138e-15
8.339357429718875281e+00 8.127360706726173072e-15
8.359437751004016093e+00 7.592033662542025934e-15
8.379518072289156905e+00 7.091874947353559905e-15
8.399598393574297717e+00 6.624579604685447364e-15
8.419678714859436752e+00 6.187993480417869050e-15
8.439759036144579341e+00 5.780103365099530161e-15
8.459839357429718376e+00 5.399027780703985878e-15
8.479919678714859188e+00 5.043008369674128043e-15
8.500000000000000000e+00 4.710401846858577439e-15
