# log10(T) rate(cm^3/s)
# Total Recomb Rates
3.500000000000000000e+00 1.014559429209751403e-10
3.520080321285140368e+00 1.005861679535317815e-10
3.540160642570281180e+00 9.972685963296999507e-11
3.560240963855421548e+00 9.888611584314428744e-11
3.580321285140562360e+00 9.807256412564133948e-11
3.600401606425702727e+00 9.729478617853092574e-11
3.620481927710843539e+00 9.656075296102369121e-11
3.640562248995983907e+00 9.587730135396389209e-11
3.660642570281124719e+00 9.524967940696885102e-11
3.680722891566265087e+00 9.468118177602584378e-11
3.700803212851405455e+00 9.417289051452467854e-11
3.720883534136546267e+00 9.372352946225729871e-11
3.740963855421686635e+00 9.332943360595869747e-11
3.761044176706827447e+00 9.298462843025351826e-11
3.781124497991967814e+00 9.268100881880269180e-11
3.801204819277108626e+00 9.240860277331802460e-11
3.821285140562248994e+00 9.215590225173568950e-11
3.841365461847389362e+00 9.191024184052047606e-11
3.861445783132530174e+00 9.165820573661218179e-11
3.881526104417670542e+00 9.138604452250408995e-11
3.901606425702811354e+00 9.108008532790922050e-11
3.921686746987951722e+00 9.072712200589170941e-11
3.941767068273092534e+00 9.031477570445855212e-11
3.961847389558232901e+00 8.983182044533086015e-11
3.981927710843373269e+00 8.926847273859719688e-11
4.002008032128514081e+00 8.861664850849561098e-11
4.022088353413654893e+00 8.787019425519705628e-11
4.042168674698794817e+00 8.702510195150993455e-11
4.062248995983935629e+00 8.607971818834281550e-11
4.082329317269076441e+00 8.503495712719736061e-11
4.102409638554217253e+00 8.389452364969038842e-11
4.122489959839357176e+00 8.266514773713946368e-11
4.142570281124497988e+00 8.135682392973454122e-11
4.162650602409638800e+00 7.998304142683761249e-11
4.182730923694778724e+00 7.856098203430415853e-11
4.202811244979919536e+00 7.711165597775695049e-11
4.222891566265060348e+00 7.565994084654607838e-11
4.242971887550201160e+00 7.423448770319844990e-11
4.263052208835341084e+00 7.286746141433528981e-11
4.283132530120481896e+00 7.159408974697490254e-11
4.303212851405622708e+00 7.045200736177045387e-11
4.323293172690762631e+00 6.948039559053619850e-11
4.343373493975903443e+00 6.871893541947984067e-11
4.363453815261044255e+00 6.820660773904888905e-11
4.383534136546185067e+00 6.798038992573807659e-11
4.403614457831324991e+00 6.807390960277278580e-11
4.423694779116465803e+00 6.851612374240502110e-11
4.443775100401606615e+00 6.933009336328579877e-11
4.463855421686746539e+00 7.053192073586206793e-11
4.483935742971887350e+00 7.212990758141252684e-11
4.504016064257028162e+00 7.412398006326145025e-11
4.524096385542168974e+00 7.650541061345598895e-11
4.544176706827309786e+00 7.925684922200192814e-11
4.564257028112449710e+00 8.235265920309427804e-11
4.584337349397590522e+00 8.575953601656705768e-11
4.604417670682730446e+00 8.943737362095249730e-11
4.624497991967871258e+00 9.334033192253844729e-11
4.644578313253012070e+00 9.741805166899868697e-11
4.664658634538152882e+00 1.016169597679927146e-10
4.684738955823293693e+00 1.058816083169228502e-10
4.704819277108433617e+00 1.101559941687304841e-10
4.724899598393574429e+00 1.143848119968915933e-10
4.744979919678714353e+00 1.185146018174674956e-10
4.765060240963855165e+00 1.224947610041053850e-10
4.785140562248995977e+00 1.262784002598369818e-10
4.805220883534136789e+00 1.298230321478114526e-10
4.825301204819277601e+00 1.330910891216799527e-10
4.845381526104417524e+00 1.360502751722907567e-10
4.865461847389558336e+00 1.386737610055972121e-10
4.885542168674698260e+00 1.409402370077017053e-10
4.905622489959839072e+00 1.428338411710470956e-10
4.925702811244979884e+00 1.443439807721234316e-10
4.945783132530120696e+00 1.454650670855367488e-10
4.965863453815261508e+00 1.461961820035348040e-10
4.985943775100401432e+00 1.465406943245742651e-10
5.006024096385542244e+00 1.465058418902730285e-10
5.026104417670682167e+00 1.461022938759718775e-10
5.046184738955822979e+00 1.453437055350132587e-10
5.066265060240963791e+00 1.442462756864296480e-10
5.086345381526104603e+00 1.428283153127509693e-10
5.106425702811245415e+00 1.411098338616583455e-10
5.126506024096385339e+00 1.391121482589658455e-10
5.146586345381526151e+00 1.368575182568915455e-10
5.166666666666666963e+00 1.343688105611907039e-10
5.186746987951806886e+00 1.316691931930610748e-10
5.206827309236947698e+00 1.287818607297108266e-10
5.226907630522088510e+00 1.257297904106284665e-10
5.246987951807229322e+00 1.225355285735297371e-10
5.267068273092369246e+00 1.192210064741427984e-10
5.287148594377510058e+00 1.158073842287261676e-10
5.307228915662650870e+00 1.123149213812515526e-10
5.327309236947790794e+00 1.087628724247966372e-10
5.347389558232931606e+00 1.051694054876395497e-10
5.367469879518072418e+00 1.015515423197097779e-10
5.387550200803213230e+00 9.792511767713027900e-11
5.407630522088353153e+00 9.430475619573826124e-11
5.427710843373493965e+00 9.070386486389132948e-11
5.447791164658634777e+00 8.713463924658446296e-11
5.467871485943774701e+00 8.360808167344987754e-11
5.487951807228915513e+00 8.013402967953853263e-11
5.508032128514056325e+00 7.672119307704205602e-11
5.528112449799197137e+00 7.337719813566567987e-11
5.548192771084337949e+00 7.010863745671572852e-11
5.568273092369477872e+00 6.692112423873025983e-11
5.588353413654618684e+00 6.381934974845339858e-11
5.608433734939758608e+00 6.080714292807475212e-11
5.628514056224899420e+00 5.788753118604546600e-11
5.648594377510040232e+00 5.506280153280893644e-11
5.668674698795181044e+00 5.233456133298258115e-11
5.688755020080321856e+00 4.970379805072948969e-11
5.708835341365461780e+00 4.717093746427775804e-11
5.728915662650602592e+00 4.473589991806270399e-11
5.748995983935742515e+00 4.239815426626597953e-11
5.769076305220883327e+00 4.015676923928768908e-11
5.789156626506024139e+00 3.801046203480091163e-11
5.809236947791164951e+00 3.595764399751039450e-11
5.829317269076305763e+00 3.399646330675658836e-11
5.849397590361445687e+00 3.212484463893308407e-11
5.869477911646586499e+00 3.034052581269279748e-11
5.889558232931726423e+00 2.864109145953600217e-11
5.909638554216867234e+00 2.702400379107048364e-11
5.929718875502008046e+00 2.548663055752915539e-11
5.949799196787148858e+00 2.402627031052150368e-11
5.969879518072289670e+00 2.264017509701758391e-11
5.989959839357429594e+00 2.132557072170839347e-11
6.010040160642570406e+00 2.007967472164807241e-11
6.030120481927710330e+00 1.889971220092215705e-11
6.050200803212851142e+00 1.778292967442687476e-11
6.070281124497991954e+00 1.672660706909534273e-11
6.090361445783132766e+00 1.572806802841759254e-11
6.110441767068273577e+00 1.478468866221179674e-11
6.130522088353413501e+00 1.389390487859823363e-11
6.150602409638554313e+00 1.305321842926766741e-11
6.170682730923694237e+00 1.226020179264832248e-11
6.190763052208835049e+00 1.151250201265247469e-11
6.210843373493975861e+00 1.080784360349892732e-11
6.230923694779116673e+00 1.014403062379432882e-11
6.251004016064257485e+00 9.518948015740799542e-12
6.271084337349397408e+00 8.930562298110036068e-12
6.291164658634538220e+00 8.376921694566742892e-12
6.311244979919678144e+00 7.856155772097621043e-12
6.331325301204818956e+00 7.366474657751493437e-12
6.351405622489959768e+00 6.906167895660248458e-12
6.371485943775100580e+00 6.473603000407503094e-12
6.391566265060241392e+00 6.067223757262769991e-12
6.411646586345381316e+00 5.685548314606398848e-12
6.431726907630522128e+00 5.327167109038338153e-12
6.451807228915662051e+00 4.990740659187169290e-12
6.471887550200802863e+00 4.674997260105862847e-12
6.491967871485943675e+00 4.378730606348542747e-12
6.512048192771084487e+00 4.100797368351333630e-12
6.532128514056225299e+00 3.840114743578091829e-12
6.552208835341365223e+00 3.595658001019398025e-12
6.572289156626506035e+00 3.366458035034752423e-12
6.592369477911645959e+00 3.151598942185589433e-12
6.612449799196786770e+00 2.950215632602222224e-12
6.632530120481927582e+00 2.761491485545105469e-12
6.652610441767068394e+00 2.584656057141041097e-12
6.672690763052209206e+00 2.418982846783544021e-12
6.692771084337350018e+00 2.263787127366394042e-12
6.712851405622489942e+00 2.118423843356220601e-12
6.732931726907629866e+00 1.982285579689342931e-12
6.753012048192770678e+00 1.854800603586937133e-12
6.773092369477911490e+00 1.735430980608074693e-12
6.793172690763052302e+00 1.623670765591240111e-12
6.813253012048193114e+00 1.519044268560510812e-12
6.833333333333333925e+00 1.421104395182831296e-12
6.853413654618473849e+00 1.329431060948746887e-12
6.873493975903614661e+00 1.243629677902135752e-12
6.893574297188754585e+00 1.163329712457441686e-12
6.913654618473895397e+00 1.088183312608378036e-12
6.933734939759036209e+00 1.017864002644385502e-12
6.953815261044177021e+00 9.520654433437771715e-13
6.973895582329317833e+00 8.905002555011575300e-13
6.993975903614457756e+00 8.328989045661357203e-13
7.014056224899598568e+00 7.790086441167249046e-13
7.034136546184738492e+00 7.285925158603717256e-13
7.054216867469879304e+00 6.814284038448014644e-13
7.074297188755020116e+00 6.373081405671792216e-13
7.094377510040160928e+00 5.960366626904226363e-13
7.114457831325301740e+00 5.574312141079423491e-13
7.134538152610441664e+00 5.213205941402883735e-13
7.154618473895582476e+00 4.875444486974828602e-13
7.174698795180722399e+00 4.559526022976314534e-13
7.194779116465863211e+00 4.264044288942210325e-13
7.214859437751004023e+00 3.987682595303706422e-13
7.234939759036144835e+00 3.729208249068242048e-13
7.255020080321285647e+00 3.487467310210980962e-13
7.275100401606425571e+00 3.261379661068799614e-13
7.295180722891566383e+00 3.049934371750004255e-13
7.315261044176706307e+00 2.852185345294754569e-13
7.335341365461847118e+00 2.667247227036984546e-13
7.355421686746987930e+00 2.494291563325975446e-13
7.375502008032128742e+00 2.332543195459473346e-13
7.395582329317269554e+00 2.181276875359528252e-13
7.415662650602409478e+00 2.039814090183519316e-13
7.435742971887550290e+00 1.907520083705162663e-13
7.455823293172690214e+00 1.783801062922268574e-13
7.475903614457831026e+00 1.668101578948238967e-13
7.495983935742971838e+00 1.559902071823003471e-13
7.516064257028112650e+00 1.458716569434712491e-13
7.536144578313252573e+00 1.364090531277051038e-13
7.556224899598393385e+00 1.275598828277506091e-13
7.576305220883534197e+00 1.192843850420226427e-13
7.596385542168675009e+00 1.115453734352892904e-13
7.616465863453814933e+00 1.043080703611308096e-13
7.636546184738955745e+00 9.753995145180894740e-14
7.656626506024096557e+00 9.121060012139253145e-14
7.676706827309237369e+00 8.529157136615554137e-14
7.696787148594377292e+00 7.975626428249762477e-14
7.716867469879518104e+00 7.457980275696610427e-14
7.736947791164658916e+00 6.973892381548315534e-14
7.757028112449798840e+00 6.521187314964296725e-14
7.777108433734939652e+00 6.097830736704540936e-14
7.797188755020080464e+00 5.701920254011758566e-14
7.817269076305221276e+00 5.331676865382633495e-14
7.837349397590361200e+00 4.985436957717819648e-14
7.857429718875502012e+00 4.661644820649384927e-14
7.877510040160642824e+00 4.358845645021268216e-14
7.897590361445782747e+00 4.075678974548078017e-14
7.917670682730923559e+00 3.810872581608220776e-14
7.937751004016064371e+00 3.563236739943841159e-14
7.957831325301205183e+00 3.331658868748364487e-14
7.977911646586345107e+00 3.115098524229340583e-14
7.997991967871485919e+00 2.912582716243964851e-14
8.018072289156627619e+00 2.723201529023373274e-14
8.038152610441766655e+00 2.546104026333897528e-14
8.058232931726907466e+00 2.380494422674231829e-14
8.078313253012048278e+00 2.225628503281834394e-14
8.098393574297189090e+00 2.080810276822550248e-14
8.118473895582329902e+00 1.945388845671280926e-14
8.138554216867468938e+00 1.818755479659984325e-14
8.158634538152611526e+00 1.700340880077540466e-14
8.178714859437750562e+00 1.589612621557603698e-14
8.198795180722891374e+00 1.486072760287565756e-14
8.218875502008032186e+00 1.389255597719976172e-14
8.238955823293172998e+00 1.298725589666820838e-14
8.259036144578313809e+00 1.214075391313121849e-14
8.279116465863452845e+00 1.134924029299789838e-14
8.299196787148595433e+00 1.060915192600172919e-14
8.319277108433734469e+00 9.917156344526565398e-15
8.339357429718875281e+00 9.270136781144796706e-15
8.359437751004016093e+00 8.665178196733536486e-15
8.379518072289156905e+00 8.099554215934250013e-15
8.399598393574297717e+00 7.570714910845695389e-15
8.419678714859436752e+00 7.076275377692688274e-15
8.439759036144579341e+00 6.614005054817777537e-15
8.459839357429718376e+00 6.181817733715000362e-15
8.479919678714859188e+00 5.777762217973891849e-15
8.500000000000000000e+00 5.400013587952562110e-15
