# log10(T) rate(cm^3/s)
# Collisional Rates
3.500000000000000000e+00 7.946652378665919160e-27
3.520080321285140368e+00 5.269159270655644704e-26
3.540160642570281180e+00 3.211357527542847924e-25
3.560240963855421548e+00 1.805853368772937453e-24
3.580321285140562360e+00 9.403819378211067896e-24
3.600401606425702727e+00 4.550552325462626922e-23
3.620481927710843539e+00 2.053070512178099047e-22
3.640562248995983907e+00 8.663638253039139322e-22
3.660642570281124719e+00 3.429794120652020389e-21
3.680722891566265087e+00 1.277504186078990525e-20
3.700803212851405455e+00 4.489331864656164544e-20
3.720883534136546267e+00 1.492349771239516707e-19
3.740963855421686635e+00 4.704590429902871716e-19
3.761044176706827447e+00 1.409868810041078974e-18
3.781124497991967814e+00 4.025664175572001468e-18
3.801204819277108626e+00 1.097613933742868779e-17
3.821285140562248994e+00 2.863671558126929370e-17
3.841365461847389362e+00 7.163505281534790602e-17
3.861445783132530174e+00 1.721411969212124866e-16
3.881526104417670542e+00 3.980994228308360419e-16
3.901606425702811354e+00 8.875660366921655775e-16
3.921686746987951722e+00 1.910878029447186749e-15
3.941767068273092534e+00 3.979024286004936746e-15
3.961847389558232901e+00 8.025804465451637423e-15
3.981927710843373269e+00 1.570349119157432309e-14
4.002008032128514081e+00 2.984684307326020661e-14
4.022088353413654893e+00 5.517811970091242079e-14
4.042168674698794817e+00 9.934535083993365840e-14
4.062248995983935629e+00 1.744060114416963258e-13
4.082329317269076441e+00 2.988863315029921143e-13
4.102409638554217253e+00 5.005600950463423637e-13
4.122489959839357176e+00 8.200970415774666860e-13
4.142570281124497988e+00 1.315727004636030450e-12
4.162650602409638800e+00 2.069049265578113474e-12
4.182730923694778724e+00 3.192085656920107273e-12
4.202811244979919536e+00 4.835630284275827111e-12
4.222891566265060348e+00 7.198889322531204588e-12
4.242971887550201160e+00 1.054033363530424004e-11
4.263052208835341084e+00 1.518960879687388580e-11
4.283132530120481896e+00 2.156026638619417758e-11
4.303212851405622708e+00 3.016300276575197999e-11
4.323293172690762631e+00 4.161902269985775932e-11
4.343373493975903443e+00 5.667309046559832117e-11
4.363453815261044255e+00 7.620579503406090355e-11
4.383534136546185067e+00 1.012445416256230330e-10
4.403614457831324991e+00 1.329727910896042327e-10
4.423694779116465803e+00 1.727371010828135131e-10
4.443775100401606615e+00 2.220515772760714494e-10
4.463855421686746539e+00 2.825994157498898031e-10
4.483935742971887350e+00 3.562313051993471068e-10
4.504016064257028162e+00 4.449605546820936798e-10
4.524096385542168974e+00 5.509549142212034771e-10
4.544176706827309786e+00 6.765251564919072602e-10
4.564257028112449710e+00 8.241105833612355559e-10
4.584337349397590522e+00 9.962617071705042219e-10
4.604417670682730446e+00 1.195620430171849570e-09
4.624497991967871258e+00 1.424898104231867517e-09
4.644578313253012070e+00 1.686851895555155326e-09
4.664658634538152882e+00 1.984259905445711613e-09
4.684738955823293693e+00 2.319895508521043125e-09
4.704819277108433617e+00 2.696501365513495242e-09
4.724899598393574429e+00 3.116763550541950739e-09
4.744979919678714353e+00 3.583286204574216524e-09
4.765060240963855165e+00 4.098567089977469570e-09
4.785140562248995977e+00 4.664974377867546105e-09
4.805220883534136789e+00 5.284724952647496450e-09
4.825301204819277601e+00 5.959864468728748708e-09
4.845381526104417524e+00 6.692249344778628893e-09
4.865461847389558336e+00 7.483530832483015751e-09
4.885542168674698260e+00 8.335141251002747433e-09
4.905622489959839072e+00 9.248282436015333211e-09
4.925702811244979884e+00 1.022391641404150100e-08
4.945783132530120696e+00 1.126275827915360469e-08
4.965863453815261508e+00 1.236527122021671998e-08
4.985943775100401432e+00 1.353166362339124693e-08
5.006024096385542244e+00 1.476188815420689503e-08
5.026104417670682167e+00 1.605564270851885377e-08
5.046184738955822979e+00 1.741237310810489315e-08
5.066265060240963791e+00 1.883127741474235443e-08
5.086345381526104603e+00 2.031131173202333536e-08
5.106425702811245415e+00 2.185119735100243781e-08
5.126506024096385339e+00 2.344942910454621761e-08
5.146586345381526151e+00 2.510428476514513598e-08
5.166666666666666963e+00 2.681383541283714321e-08
5.186746987951806886e+00 2.857595666337552787e-08
5.206827309236947698e+00 3.038834056061623027e-08
5.226907630522088510e+00 3.224850804670406838e-08
5.246987951807229322e+00 3.415382179755520690e-08
5.267068273092369246e+00 3.610149922104401786e-08
5.287148594377510058e+00 3.808862632627468025e-08
5.307228915662650870e+00 4.011217158125178985e-08
5.327309236947790794e+00 4.216899976768693239e-08
5.347389558232931606e+00 4.425588584753475052e-08
5.367469879518072418e+00 4.636952839223098025e-08
5.387550200803213230e+00 4.850656140092171875e-08
5.407630522088353153e+00 5.066356918241773798e-08
5.427710843373493965e+00 5.283710044441090108e-08
5.447791164658634777e+00 5.502368127436772048e-08
5.467871485943774701e+00 5.721982776152755199e-08
5.487951807228915513e+00 5.942205821700845104e-08
5.508032128514056325e+00 6.162690379802508212e-08
5.528112449799197137e+00 6.383091243044473597e-08
5.548192771084337949e+00 6.603066450712273122e-08
5.568273092369477872e+00 6.822278719122857662e-08
5.588353413654618684e+00 7.040396430487734792e-08
5.608433734939758608e+00 7.257094560074892701e-08
5.628514056224899420e+00 7.472055542000086168e-08
5.648594377510040232e+00 7.684970072507628350e-08
5.668674698795181044e+00 7.895537800765849073e-08
5.688755020080321856e+00 8.103466413711532060e-08
5.708835341365461780e+00 8.308471981493354079e-08
5.728915662650602592e+00 8.510281472980712576e-08
5.748995983935742515e+00 8.708633401379415357e-08
5.769076305220883327e+00 8.903278278946190841e-08
5.789156626506024139e+00 9.093979006150294147e-08
5.809236947791164951e+00 9.280511198232085952e-08
5.829317269076305763e+00 9.462663448181145161e-08
5.849397590361445687e+00 9.640237529299040608e-08
5.869477911646586499e+00 9.813048528862034074e-08
5.889558232931726423e+00 9.980923207918139273e-08
5.909638554216867234e+00 1.014369712244815429e-07
5.929718875502008046e+00 1.030121886910941717e-07
5.949799196787148858e+00 1.045335093554744432e-07
5.969879518072289670e+00 1.059996961568788450e-07
5.989959839357429594e+00 1.074096482645450130e-07
6.010040160642570406e+00 1.087624003884557813e-07
6.030120481927710330e+00 1.100571210670488315e-07
6.050200803212851142e+00 1.112931102652153775e-07
6.070281124497991954e+00 1.124697966123907274e-07
6.090361445783132766e+00 1.135867335653286959e-07
6.110441767068273577e+00 1.146435921356978079e-07
6.130522088353413501e+00 1.156401607800193731e-07
6.150602409638554313e+00 1.165763388239951264e-07
6.170682730923694237e+00 1.174520837219469152e-07
6.190763052208835049e+00 1.182674305246600501e-07
6.210843373493975861e+00 1.190225234561345311e-07
6.230923694779116673e+00 1.197176101773361166e-07
6.251004016064257485e+00 1.203530234816949811e-07
6.271084337349397408e+00 1.209291872351821394e-07
6.291164658634538220e+00 1.214466199813724883e-07
6.311244979919678144e+00 1.219059297016948126e-07
6.331325301204818956e+00 1.223078084146811564e-07
6.351405622489959768e+00 1.226530267032204855e-07
6.371485943775100580e+00 1.229424281979763299e-07
6.391566265060241392e+00 1.231769233490738221e-07
6.411646586345381316e+00 1.233574574002693111e-07
6.431726907630522128e+00 1.234850012665693424e-07
6.451807228915662051e+00 1.235605834235132177e-07
6.471887550200802863e+00 1.235852864812161029e-07
6.491967871485943675e+00 1.235602412160927725e-07
6.512048192771084487e+00 1.234866207687123871e-07
6.532128514056225299e+00 1.233656349683918212e-07
6.552208835341365223e+00 1.231985066379132164e-07
6.572289156626506035e+00 1.229864429684112885e-07
6.592369477911645959e+00 1.227306712630966523e-07
6.612449799196786770e+00 1.224324153738402319e-07
6.632530120481927582e+00 1.220928446938101101e-07
6.652610441767068394e+00 1.217131432333321547e-07
6.672690763052209206e+00 1.212945205135997323e-07
6.692771084337350018e+00 1.208382064284951142e-07
6.712851405622489942e+00 1.203454464171637132e-07
6.732931726907629866e+00 1.198174969525209675e-07
6.753012048192770678e+00 1.192556213478076572e-07
6.773092369477911490e+00 1.186610858804128053e-07
6.793172690763052302e+00 1.180351562294730785e-07
6.813253012048193114e+00 1.173790942212615547e-07
6.833333333333333925e+00 1.166941548741225849e-07
6.853413654618473849e+00 1.159815837327015206e-07
6.873493975903614661e+00 1.152426082202661161e-07
6.893574297188754585e+00 1.144783642459401038e-07
6.913654618473895397e+00 1.136899316859507019e-07
6.933734939759036209e+00 1.128783914138098753e-07
6.953815261044177021e+00 1.120448232691440721e-07
6.973895582329317833e+00 1.111903031185085044e-07
6.993975903614457756e+00 1.103159002116361329e-07
7.014056224899598568e+00 1.094226748144099846e-07
7.034136546184738492e+00 1.085116760995331890e-07
7.054216867469879304e+00 1.075839402758701869e-07
7.074297188755020116e+00 1.066404889377280644e-07
7.094377510040160928e+00 1.056823276158664605e-07
7.114457831325301740e+00 1.047104445127468006e-07
7.134538152610441664e+00 1.037258094054047723e-07
7.154618473895582476e+00 1.027293727003155042e-07
7.174698795180722399e+00 1.017220646256852749e-07
7.194779116465863211e+00 1.007047945477145800e-07
7.214859437751004023e+00 9.967845039850339758e-08
7.234939759036144835e+00 9.864389820438626454e-08
7.255020080321285647e+00 9.760198163031989855e-08
7.275100401606425571e+00 9.655349194227777754e-08
7.295180722891566383e+00 9.549912795139408781e-08
7.315261044176706307e+00 9.443956863560560772e-08
7.335341365461847118e+00 9.337548478466453106e-08
7.355421686746987930e+00 9.230753766925623937e-08
7.375502008032128742e+00 9.123637782991806579e-08
7.395582329317269554e+00 9.016264398031640066e-08
7.415662650602409478e+00 8.908696201964436501e-08
7.435742971887550290e+00 8.800994414908867842e-08
7.455823293172690214e+00 8.693218808748790978e-08
7.475903614457831026e+00 8.585427638144529111e-08
7.495983935742971838e+00 8.477677580530070245e-08
7.516064257028112650e+00 8.370023684646579006e-08
7.536144578313252573e+00 8.262519327173291983e-08
7.556224899598393385e+00 8.155216177024464899e-08
7.576305220883534197e+00 8.048164166889354110e-08
7.596385542168675009e+00 7.941411471598468377e-08
7.616465863453814933e+00 7.835004492906570353e-08
7.636546184738955745e+00 7.728987850289230837e-08
7.656626506024096557e+00 7.623404377357035220e-08
7.676706827309237369e+00 7.518295123498603741e-08
7.696787148594377292e+00 7.413699360372026996e-08
7.716867469879518104e+00 7.309654592872497357e-08
7.736947791164658916e+00 7.206196574214017797e-08
7.757028112449798840e+00 7.103359324772806528e-08
7.777108433734939652e+00 7.001175154351434935e-08
7.797188755020080464e+00 6.899674687534510040e-08
7.817269076305221276e+00 6.798886891818968225e-08
7.837349397590361200e+00 6.698839108215561113e-08
7.857429718875502012e+00 6.599557084031487027e-08
7.877510040160642824e+00 6.501065007558188795e-08
7.897590361445782747e+00 6.403385544402819002e-08
7.917670682730923559e+00 6.306539875216219037e-08
7.937751004016064371e+00 6.210547734585179350e-08
7.957831325301205183e+00 6.115427450871081671e-08
7.977911646586345107e+00 6.021195984549938776e-08
7.997991967871485919e+00 5.927868296264136618e-08
8.018072289156627619e+00 5.835456598014271153e-08
8.038152610441766655e+00 5.743971972718807197e-08
8.058232931726907466e+00 5.653424641883735199e-08
8.078313253012048278e+00 5.563823974290935598e-08
8.098393574297189090e+00 5.475178496786380868e-08
8.118473895582329902e+00 5.387495906976550591e-08
8.138554216867468938e+00 5.300783087644722447e-08
8.158634538152611526e+00 5.215046122703948393e-08
8.178714859437750562e+00 5.130290314509672903e-08
8.198795180722891374e+00 5.046520202361901126e-08
8.218875502008032186e+00 4.963739582035250119e-08
8.238955823293172998e+00 4.881951526183262500e-08
8.259036144578313809e+00 4.801158405472364861e-08
8.279116465863452845e+00 4.721361910309944357e-08
8.299196787148595433e+00 4.642563073040181376e-08
8.319277108433734469e+00 4.564762290490307678e-08
8.339357429718875281e+00 4.487959346758890961e-08
8.359437751004016093e+00 4.412153436146941101e-08
8.379518072289156905e+00 4.337343186140517971e-08
8.399598393574297717e+00 4.263526680362384183e-08
8.419678714859436752e+00 4.190701481417647684e-08
8.439759036144579341e+00 4.118864653566188098e-08
8.459839357429718376e+00 4.048012785161520355e-08
8.479919678714859188e+00 3.978142010802473778e-08
8.500000000000000000e+00 3.909248033150651825e-08
