# log10(T) rate(cm^3/s)
# ColRates
3.500000000000000000e+00 1.396699999999999868e-26
3.520000000000000018e+00 1.025650000000000035e-25
3.540000000000000036e+00 6.890019999999999832e-25
3.560000000000000053e+00 4.251279999999999938e-24
3.580000000000000071e+00 2.418600000000000095e-23
3.600000000000000089e+00 1.273349999999999905e-22
3.620000000000000107e+00 6.225679999999999961e-22
3.640000000000000124e+00 2.836209999999999814e-21
3.660000000000000142e+00 1.207779999999999930e-20
3.680000000000000160e+00 4.822360000000000219e-20
3.700000000000000178e+00 1.810569999999999931e-19
3.720000000000000195e+00 6.410120000000000139e-19
3.740000000000000213e+00 2.145659999999999952e-18
3.759999999999999787e+00 6.807730000000000368e-18
3.779999999999999805e+00 2.052290000000000040e-17
3.799999999999999822e+00 5.892110000000000305e-17
3.819999999999999840e+00 1.614619999999999995e-16
3.839999999999999858e+00 4.231879999999999949e-16
3.859999999999999876e+00 1.063040000000000013e-15
3.879999999999999893e+00 2.564130000000000114e-15
3.899999999999999911e+00 5.949860000000000010e-15
3.919999999999999929e+00 1.330490000000000050e-14
3.939999999999999947e+00 2.871949999999999819e-14
3.959999999999999964e+00 5.993730000000000149e-14
3.979999999999999982e+00 1.211250000000000014e-13
4.000000000000000000e+00 2.373659999999999904e-13
4.019999999999999574e+00 4.517089999999999789e-13
4.040000000000000036e+00 8.358329999999999989e-13
4.059999999999999609e+00 1.505789999999999989e-12
4.080000000000000071e+00 2.644270000000000000e-12
4.099999999999999645e+00 4.531599999999999795e-12
4.120000000000000107e+00 7.587270000000000648e-12
4.139999999999999680e+00 1.239250000000000076e-11
4.160000000000000142e+00 1.956020000000000060e-11
4.179999999999999716e+00 3.033390000000000265e-11
4.200000000000000178e+00 4.623449999999999813e-11
4.219999999999999751e+00 6.928519999999999562e-11
4.240000000000000213e+00 1.021230000000000050e-10
4.259999999999999787e+00 1.481180000000000101e-10
4.280000000000000249e+00 2.114999999999999934e-10
4.299999999999999822e+00 2.974600000000000254e-10
4.320000000000000284e+00 4.122839999999999796e-10
4.339999999999999858e+00 5.634179999999999873e-10
4.360000000000000320e+00 7.595659999999999597e-10
4.379999999999999893e+00 1.010689999999999950e-09
4.400000000000000355e+00 1.328069999999999944e-09
4.419999999999999929e+00 1.724209999999999984e-09
4.440000000000000391e+00 2.212800000000000051e-09
4.459999999999999964e+00 2.808569999999999949e-09
4.480000000000000426e+00 3.527199999999999979e-09
4.500000000000000000e+00 4.385000000000000057e-09
4.519999999999999574e+00 5.398819999999999768e-09
4.540000000000000036e+00 6.585650000000000311e-09
4.559999999999999609e+00 7.962520000000000748e-09
4.580000000000000071e+00 9.545970000000000279e-09
4.599999999999999645e+00 1.135210000000000012e-08
4.620000000000000107e+00 1.339580000000000041e-08
4.639999999999999680e+00 1.569110000000000013e-08
4.660000000000000142e+00 1.825030000000000097e-08
4.679999999999999716e+00 2.108410000000000084e-08
4.700000000000000178e+00 2.420120000000000035e-08
4.719999999999999751e+00 2.760839999999999991e-08
4.740000000000000213e+00 3.131040000000000222e-08
4.769999999999999574e+00 3.530929999999999841e-08
4.790000000000000036e+00 3.960479999999999873e-08
4.809999999999999609e+00 4.419459999999999791e-08
4.830000000000000071e+00 4.907409999999999869e-08
4.849999999999999645e+00 5.423570000000000039e-08
4.870000000000000107e+00 5.967029999999999401e-08
4.889999999999999680e+00 6.536629999999999419e-08
4.910000000000000142e+00 7.131040000000000306e-08
4.929999999999999716e+00 7.748730000000000062e-08
4.950000000000000178e+00 8.387999999999999407e-08
4.969999999999999751e+00 9.047009999999999429e-08
4.990000000000000213e+00 9.723830000000000324e-08
5.009999999999999787e+00 1.041640000000000055e-07
5.030000000000000249e+00 1.112250000000000050e-07
5.049999999999999822e+00 1.183990000000000003e-07
5.070000000000000284e+00 1.256650000000000072e-07
5.089999999999999858e+00 1.329980000000000108e-07
5.110000000000000320e+00 1.403779999999999882e-07
5.129999999999999893e+00 1.477789999999999894e-07
5.150000000000000355e+00 1.551809999999999918e-07
5.169999999999999929e+00 1.625609999999999956e-07
5.190000000000000391e+00 1.698980000000000037e-07
5.209999999999999964e+00 1.771709999999999921e-07
5.230000000000000426e+00 1.843599999999999912e-07
5.250000000000000000e+00 1.914470000000000069e-07
5.269999999999999574e+00 1.984129999999999914e-07
5.290000000000000036e+00 2.052430000000000069e-07
5.309999999999999609e+00 2.119200000000000077e-07
5.330000000000000071e+00 2.184290000000000033e-07
5.349999999999999645e+00 2.247590000000000077e-07
5.370000000000000107e+00 2.308950000000000039e-07
5.389999999999999680e+00 2.368290000000000093e-07
5.410000000000000142e+00 2.425489999999999837e-07
5.429999999999999716e+00 2.480479999999999987e-07
5.450000000000000178e+00 2.533190000000000199e-07
5.469999999999999751e+00 2.583539999999999853e-07
5.490000000000000213e+00 2.631489999999999961e-07
5.509999999999999787e+00 2.676999999999999950e-07
5.530000000000000249e+00 2.720029999999999773e-07
5.549999999999999822e+00 2.760570000000000214e-07
5.570000000000000284e+00 2.798600000000000192e-07
5.589999999999999858e+00 2.834109999999999958e-07
5.610000000000000320e+00 2.867109999999999791e-07
5.629999999999999893e+00 2.897609999999999964e-07
5.650000000000000355e+00 2.925620000000000227e-07
5.669999999999999929e+00 2.951169999999999817e-07
5.690000000000000391e+00 2.974290000000000093e-07
5.709999999999999964e+00 2.995000000000000018e-07
5.730000000000000426e+00 3.013349999999999914e-07
5.750000000000000000e+00 3.029370000000000080e-07
5.769999999999999574e+00 3.043120000000000054e-07
5.790000000000000036e+00 3.054630000000000136e-07
5.809999999999999609e+00 3.063970000000000139e-07
5.830000000000000071e+00 3.071180000000000109e-07
5.849999999999999645e+00 3.076329999999999860e-07
5.870000000000000107e+00 3.079470000000000244e-07
5.889999999999999680e+00 3.080659999999999741e-07
5.910000000000000142e+00 3.079969999999999752e-07
5.929999999999999716e+00 3.077450000000000071e-07
5.950000000000000178e+00 3.073160000000000236e-07
5.969999999999999751e+00 3.067190000000000084e-07
5.990000000000000213e+00 3.059580000000000190e-07
6.009999999999999787e+00 3.050399999999999839e-07
6.030000000000000249e+00 3.039719999999999905e-07
6.049999999999999822e+00 3.027610000000000202e-07
6.070000000000000284e+00 3.014119999999999993e-07
6.089999999999999858e+00 2.999320000000000152e-07
6.110000000000000320e+00 2.983279999999999963e-07
6.129999999999999893e+00 2.966060000000000025e-07
6.150000000000000355e+00 2.947719999999999875e-07
6.169999999999999929e+00 2.928309999999999836e-07
6.190000000000000391e+00 2.907909999999999997e-07
6.209999999999999964e+00 2.886579999999999898e-07
6.230000000000000426e+00 2.864349999999999837e-07
6.250000000000000000e+00 2.841299999999999906e-07
6.269999999999999574e+00 2.817479999999999895e-07
6.290000000000000036e+00 2.792940000000000126e-07
6.309999999999999609e+00 2.767740000000000139e-07
6.330000000000000071e+00 2.741910000000000231e-07
6.349999999999999645e+00 2.715520000000000218e-07
6.370000000000000107e+00 2.688610000000000144e-07
6.389999999999999680e+00 2.661209999999999780e-07
6.410000000000000142e+00 2.633389999999999998e-07
6.429999999999999716e+00 2.605169999999999763e-07
6.450000000000000178e+00 2.576590000000000178e-07
6.469999999999999751e+00 2.547699999999999977e-07
6.490000000000000213e+00 2.518529999999999987e-07
6.509999999999999787e+00 2.489109999999999979e-07
6.530000000000000249e+00 2.459479999999999998e-07
6.549999999999999822e+00 2.429669999999999812e-07
6.570000000000000284e+00 2.399699999999999975e-07
6.589999999999999858e+00 2.369610000000000001e-07
6.610000000000000320e+00 2.339409999999999903e-07
6.629999999999999893e+00 2.309139999999999990e-07
6.650000000000000355e+00 2.278820000000000020e-07
6.669999999999999929e+00 2.248470000000000016e-07
6.690000000000000391e+00 2.218110000000000001e-07
6.709999999999999964e+00 2.187749999999999986e-07
6.730000000000000426e+00 2.157430000000000016e-07
6.750000000000000000e+00 2.127150000000000092e-07
6.769999999999999574e+00 2.096929999999999971e-07
6.790000000000000036e+00 2.066779999999999929e-07
6.809999999999999609e+00 2.036719999999999989e-07
6.830000000000000071e+00 2.006769999999999910e-07
6.849999999999999645e+00 1.976929999999999955e-07
6.870000000000000107e+00 1.947219999999999883e-07
6.889999999999999680e+00 1.917639999999999958e-07
6.910000000000000142e+00 1.888209999999999939e-07
6.929999999999999716e+00 1.858940000000000101e-07
6.950000000000000178e+00 1.829829999999999915e-07
6.969999999999999751e+00 1.800909999999999945e-07
6.990000000000000213e+00 1.772159999999999902e-07
7.009999999999999787e+00 1.743610000000000087e-07
7.030000000000000249e+00 1.715249999999999957e-07
7.049999999999999822e+00 1.687110000000000077e-07
7.070000000000000284e+00 1.659169999999999894e-07
7.089999999999999858e+00 1.631459999999999972e-07
7.110000000000000320e+00 1.603970000000000035e-07
7.129999999999999893e+00 1.576720000000000106e-07
7.150000000000000355e+00 1.549699999999999907e-07
7.169999999999999929e+00 1.522929999999999993e-07
7.190000000000000391e+00 1.496410000000000097e-07
7.209999999999999964e+00 1.470139999999999955e-07
7.230000000000000426e+00 1.444140000000000119e-07
7.259999999999999787e+00 1.418390000000000037e-07
7.280000000000000249e+00 1.392920000000000008e-07
7.299999999999999822e+00 1.367720000000000021e-07
7.320000000000000284e+00 1.342800000000000086e-07
7.339999999999999858e+00 1.318159999999999940e-07
7.360000000000000320e+00 1.293800000000000111e-07
7.379999999999999893e+00 1.269740000000000092e-07
7.400000000000000355e+00 1.245960000000000127e-07
7.419999999999999929e+00 1.222479999999999972e-07
7.440000000000000391e+00 1.199289999999999882e-07
7.459999999999999964e+00 1.176410000000000010e-07
7.480000000000000426e+00 1.153829999999999950e-07
7.500000000000000000e+00 1.131549999999999965e-07
7.519999999999999574e+00 1.109579999999999934e-07
7.540000000000000036e+00 1.087919999999999990e-07
7.559999999999999609e+00 1.066559999999999990e-07
7.580000000000000071e+00 1.045509999999999943e-07
7.599999999999999645e+00 1.024779999999999995e-07
7.620000000000000107e+00 1.004349999999999990e-07
7.639999999999999680e+00 9.842370000000000537e-08
7.660000000000000142e+00 9.644339999999999392e-08
7.679999999999999716e+00 9.449419999999999656e-08
7.700000000000000178e+00 9.257599999999999464e-08
7.719999999999999751e+00 9.068869999999999600e-08
7.740000000000000213e+00 8.883240000000000604e-08
7.759999999999999787e+00 8.700679999999999530e-08
7.780000000000000249e+00 8.521190000000000350e-08
7.799999999999999822e+00 8.344740000000000116e-08
7.820000000000000284e+00 8.171339999999999371e-08
7.839999999999999858e+00 8.000939999999999380e-08
7.860000000000000320e+00 7.833549999999999362e-08
7.879999999999999893e+00 7.669120000000000582e-08
7.900000000000000355e+00 7.507639999999999853e-08
7.919999999999999929e+00 7.349090000000000065e-08
7.940000000000000391e+00 7.193439999999999594e-08
7.959999999999999964e+00 7.040659999999999466e-08
7.980000000000000426e+00 6.890719999999999382e-08
8.000000000000000000e+00 6.743590000000000367e-08
8.019999999999999574e+00 6.599250000000000016e-08
8.039999999999999147e+00 6.457649999999999595e-08
8.060000000000000497e+00 6.318769999999999346e-08
8.080000000000000071e+00 6.182580000000000295e-08
8.099999999999999645e+00 6.049029999999999738e-08
8.119999999999999218e+00 5.918099999999999902e-08
8.140000000000000568e+00 5.789749999999999947e-08
8.160000000000000142e+00 5.663939999999999696e-08
8.179999999999999716e+00 5.540640000000000173e-08
8.199999999999999289e+00 5.419809999999999878e-08
8.220000000000000639e+00 5.301409999999999956e-08
8.240000000000000213e+00 5.185410000000000109e-08
8.259999999999999787e+00 5.071770000000000158e-08
8.279999999999999361e+00 4.960449999999999926e-08
8.300000000000000711e+00 4.851409999999999897e-08
8.320000000000000284e+00 4.744619999999999773e-08
8.339999999999999858e+00 4.640040000000000037e-08
8.359999999999999432e+00 4.537629999999999849e-08
8.380000000000000782e+00 4.437349999999999695e-08
8.400000000000000355e+00 4.339179999999999816e-08
8.419999999999999929e+00 4.243060000000000276e-08
8.439999999999999503e+00 4.148969999999999994e-08
8.460000000000000853e+00 4.056860000000000237e-08
8.480000000000000426e+00 3.966709999999999923e-08
8.500000000000000000e+00 3.878459999999999778e-08
