# log10(T) rate(cm^3/s)
# ColRates
3.500000000000000000e+00 1.613559999999999958e-19
3.520000000000000018e+00 6.079109999999999810e-19
3.540000000000000036e+00 2.159330000000000127e-18
3.560000000000000053e+00 7.250689999999999742e-18
3.580000000000000071e+00 2.307409999999999958e-17
3.600000000000000089e+00 6.976010000000000523e-17
3.620000000000000107e+00 2.008320000000000111e-16
3.640000000000000124e+00 5.517749999999999779e-16
3.660000000000000142e+00 1.449819999999999960e-15
3.680000000000000160e+00 3.650569999999999680e-15
3.700000000000000178e+00 8.825540000000000227e-15
3.720000000000000195e+00 2.052350000000000148e-14
3.740000000000000213e+00 4.598920000000000032e-14
3.759999999999999787e+00 9.946770000000000186e-14
3.779999999999999805e+00 2.079810000000000101e-13
3.799999999999999822e+00 4.210559999999999883e-13
3.819999999999999840e+00 8.265650000000000227e-13
3.839999999999999858e+00 1.575519999999999935e-12
3.859999999999999876e+00 2.919940000000000178e-12
3.879999999999999893e+00 5.268230000000000060e-12
3.899999999999999911e+00 9.264690000000000178e-12
3.919999999999999929e+00 1.589909999999999877e-11
3.939999999999999947e+00 2.665459999999999913e-11
3.959999999999999964e+00 4.363170000000000118e-11
3.979999999999999982e+00 6.892669999999999629e-11
4.000000000000000000e+00 1.069790000000000061e-10
4.019999999999999574e+00 1.631849999999999902e-10
4.040000000000000036e+00 2.447260000000000088e-10
4.059999999999999609e+00 3.609809999999999863e-10
4.080000000000000071e+00 5.239329999999999939e-10
4.099999999999999645e+00 7.486180000000000302e-10
4.120000000000000107e+00 1.053549999999999945e-09
4.139999999999999680e+00 1.461100000000000052e-09
4.160000000000000142e+00 1.997820000000000035e-09
4.179999999999999716e+00 2.694689999999999925e-09
4.200000000000000178e+00 3.587340000000000146e-09
4.219999999999999751e+00 4.715910000000000106e-09
4.240000000000000213e+00 6.124990000000000373e-09
4.259999999999999787e+00 7.863489999999999695e-09
4.280000000000000249e+00 9.984010000000000143e-09
4.299999999999999822e+00 1.254219999999999997e-08
4.320000000000000284e+00 1.559659999999999885e-08
4.339999999999999858e+00 1.920689999999999909e-08
4.360000000000000320e+00 2.343390000000000114e-08
4.379999999999999893e+00 2.833780000000000114e-08
4.400000000000000355e+00 3.397800000000000157e-08
4.419999999999999929e+00 4.041089999999999825e-08
4.440000000000000391e+00 4.769009999999999768e-08
4.459999999999999964e+00 5.586420000000000071e-08
4.480000000000000426e+00 6.497750000000000066e-08
4.500000000000000000e+00 7.506659999999999801e-08
4.519999999999999574e+00 8.616309999999999417e-08
4.540000000000000036e+00 9.828930000000000385e-08
4.559999999999999609e+00 1.114619999999999958e-07
4.580000000000000071e+00 1.256850000000000035e-07
4.599999999999999645e+00 1.409609999999999875e-07
4.620000000000000107e+00 1.572770000000000126e-07
4.639999999999999680e+00 1.746150000000000055e-07
4.660000000000000142e+00 1.929489999999999896e-07
4.679999999999999716e+00 2.122440000000000045e-07
4.700000000000000178e+00 2.324570000000000016e-07
4.719999999999999751e+00 2.535399999999999794e-07
4.740000000000000213e+00 2.754370000000000066e-07
4.769999999999999574e+00 2.980859999999999866e-07
4.790000000000000036e+00 3.214199999999999757e-07
4.809999999999999609e+00 3.453690000000000005e-07
4.830000000000000071e+00 3.698580000000000022e-07
4.849999999999999645e+00 3.948080000000000238e-07
4.870000000000000107e+00 4.201400000000000021e-07
4.889999999999999680e+00 4.457720000000000029e-07
4.910000000000000142e+00 4.716239999999999885e-07
4.929999999999999716e+00 4.976120000000000224e-07
4.950000000000000178e+00 5.236539999999999588e-07
4.969999999999999751e+00 5.496719999999999738e-07
4.990000000000000213e+00 5.755859999999999767e-07
5.009999999999999787e+00 6.013189999999999597e-07
5.030000000000000249e+00 6.268010000000000022e-07
5.049999999999999822e+00 6.519570000000000456e-07
5.070000000000000284e+00 6.767240000000000450e-07
5.089999999999999858e+00 7.010370000000000060e-07
5.110000000000000320e+00 7.248380000000000217e-07
5.129999999999999893e+00 7.480710000000000287e-07
5.150000000000000355e+00 7.706860000000000230e-07
5.169999999999999929e+00 7.926359999999999781e-07
5.190000000000000391e+00 8.138800000000000325e-07
5.209999999999999964e+00 8.343810000000000121e-07
5.230000000000000426e+00 8.541050000000000370e-07
5.250000000000000000e+00 8.730230000000000480e-07
5.269999999999999574e+00 8.911099999999999902e-07
5.290000000000000036e+00 9.083469999999999744e-07
5.309999999999999609e+00 9.247169999999999549e-07
5.330000000000000071e+00 9.402050000000000470e-07
5.349999999999999645e+00 9.548020000000000023e-07
5.370000000000000107e+00 9.685040000000000279e-07
5.389999999999999680e+00 9.813049999999999584e-07
5.410000000000000142e+00 9.932070000000000606e-07
5.429999999999999716e+00 1.004209999999999911e-06
5.450000000000000178e+00 1.014320000000000099e-06
5.469999999999999751e+00 1.023549999999999924e-06
5.490000000000000213e+00 1.031900000000000022e-06
5.509999999999999787e+00 1.039390000000000098e-06
5.530000000000000249e+00 1.046030000000000004e-06
5.549999999999999822e+00 1.051830000000000016e-06
5.570000000000000284e+00 1.056810000000000051e-06
5.589999999999999858e+00 1.060990000000000026e-06
5.610000000000000320e+00 1.064380000000000006e-06
5.629999999999999893e+00 1.067009999999999970e-06
5.650000000000000355e+00 1.068889999999999985e-06
5.669999999999999929e+00 1.070050000000000029e-06
5.690000000000000391e+00 1.070510000000000022e-06
5.709999999999999964e+00 1.070290000000000090e-06
5.730000000000000426e+00 1.069400000000000086e-06
5.750000000000000000e+00 1.067889999999999910e-06
5.769999999999999574e+00 1.065759999999999982e-06
5.790000000000000036e+00 1.063040000000000075e-06
5.809999999999999609e+00 1.059759999999999955e-06
5.830000000000000071e+00 1.055929999999999900e-06
5.849999999999999645e+00 1.051580000000000103e-06
5.870000000000000107e+00 1.046739999999999909e-06
5.889999999999999680e+00 1.041420000000000017e-06
5.910000000000000142e+00 1.035649999999999986e-06
5.929999999999999716e+00 1.029449999999999944e-06
5.950000000000000178e+00 1.022850000000000083e-06
5.969999999999999751e+00 1.015860000000000045e-06
5.990000000000000213e+00 1.008510000000000022e-06
6.009999999999999787e+00 1.000810000000000079e-06
6.030000000000000249e+00 9.927920000000000400e-07
6.049999999999999822e+00 9.844729999999999508e-07
6.070000000000000284e+00 9.758719999999999123e-07
6.089999999999999858e+00 9.670080000000000257e-07
6.110000000000000320e+00 9.579009999999999958e-07
6.129999999999999893e+00 9.485679999999999744e-07
6.150000000000000355e+00 9.390279999999999564e-07
6.169999999999999929e+00 9.292960000000000384e-07
6.190000000000000391e+00 9.193910000000000037e-07
6.209999999999999964e+00 9.093279999999999486e-07
6.230000000000000426e+00 8.991229999999999971e-07
6.250000000000000000e+00 8.887889999999999789e-07
6.269999999999999574e+00 8.783430000000000453e-07
6.290000000000000036e+00 8.677969999999999984e-07
6.309999999999999609e+00 8.571639999999999852e-07
6.330000000000000071e+00 8.464560000000000193e-07
6.349999999999999645e+00 8.356869999999999577e-07
6.370000000000000107e+00 8.248669999999999707e-07
6.389999999999999680e+00 8.140060000000000166e-07
6.410000000000000142e+00 8.031149999999999755e-07
6.429999999999999716e+00 7.922040000000000176e-07
6.450000000000000178e+00 7.812810000000000461e-07
6.469999999999999751e+00 7.703560000000000194e-07
6.490000000000000213e+00 7.594370000000000525e-07
6.509999999999999787e+00 7.485299999999999933e-07
6.530000000000000249e+00 7.376429999999999567e-07
6.549999999999999822e+00 7.267839999999999519e-07
6.570000000000000284e+00 7.159569999999999834e-07
6.589999999999999858e+00 7.051699999999999544e-07
6.610000000000000320e+00 6.944269999999999753e-07
6.629999999999999893e+00 6.837339999999999999e-07
6.650000000000000355e+00 6.730959999999999545e-07
6.669999999999999929e+00 6.625160000000000279e-07
6.690000000000000391e+00 6.519990000000000403e-07
6.709999999999999964e+00 6.415500000000000240e-07
6.730000000000000426e+00 6.311710000000000341e-07
6.750000000000000000e+00 6.208659999999999692e-07
6.769999999999999574e+00 6.106380000000000182e-07
6.790000000000000036e+00 6.004900000000000520e-07
6.809999999999999609e+00 5.904250000000000476e-07
6.830000000000000071e+00 5.804449999999999542e-07
6.849999999999999645e+00 5.705529999999999607e-07
6.870000000000000107e+00 5.607499999999999887e-07
6.889999999999999680e+00 5.510400000000000427e-07
6.910000000000000142e+00 5.414230000000000168e-07
6.929999999999999716e+00 5.319019999999999940e-07
6.950000000000000178e+00 5.224780000000000017e-07
6.969999999999999751e+00 5.131529999999999893e-07
6.990000000000000213e+00 5.039290000000000121e-07
7.009999999999999787e+00 4.948059999999999641e-07
7.030000000000000249e+00 4.857860000000000064e-07
7.049999999999999822e+00 4.768699999999999549e-07
7.070000000000000284e+00 4.680589999999999960e-07
7.089999999999999858e+00 4.593539999999999984e-07
7.110000000000000320e+00 4.507570000000000175e-07
7.129999999999999893e+00 4.422680000000000001e-07
7.150000000000000355e+00 4.338869999999999994e-07
7.169999999999999929e+00 4.256149999999999899e-07
7.190000000000000391e+00 4.174539999999999739e-07
7.209999999999999964e+00 4.094029999999999768e-07
7.230000000000000426e+00 4.014619999999999986e-07
7.259999999999999787e+00 3.936329999999999885e-07
7.280000000000000249e+00 3.859159999999999995e-07
7.299999999999999822e+00 3.783109999999999787e-07
7.320000000000000284e+00 3.708170000000000044e-07
7.339999999999999858e+00 3.634360000000000259e-07
7.360000000000000320e+00 3.561659999999999879e-07
7.379999999999999893e+00 3.490089999999999986e-07
7.400000000000000355e+00 3.419630000000000029e-07
7.419999999999999929e+00 3.350289999999999754e-07
7.440000000000000391e+00 3.282059999999999943e-07
7.459999999999999964e+00 3.214940000000000067e-07
7.480000000000000426e+00 3.148919999999999850e-07
7.500000000000000000e+00 3.084010000000000098e-07
7.519999999999999574e+00 3.020190000000000259e-07
7.540000000000000036e+00 2.957459999999999802e-07
7.559999999999999609e+00 2.895810000000000041e-07
7.580000000000000071e+00 2.835239999999999916e-07
7.599999999999999645e+00 2.775740000000000211e-07
7.620000000000000107e+00 2.717289999999999843e-07
7.639999999999999680e+00 2.659900000000000147e-07
7.660000000000000142e+00 2.603550000000000043e-07
7.679999999999999716e+00 2.548229999999999783e-07
7.700000000000000178e+00 2.493930000000000151e-07
7.719999999999999751e+00 2.440639999999999811e-07
7.740000000000000213e+00 2.388359999999999822e-07
7.759999999999999787e+00 2.337059999999999885e-07
7.780000000000000249e+00 2.286750000000000012e-07
7.799999999999999822e+00 2.237399999999999904e-07
7.820000000000000284e+00 2.189010000000000091e-07
7.839999999999999858e+00 2.141550000000000009e-07
7.860000000000000320e+00 2.095029999999999934e-07
7.879999999999999893e+00 2.049430000000000108e-07
7.900000000000000355e+00 2.004729999999999979e-07
7.919999999999999929e+00 1.960930000000000076e-07
7.940000000000000391e+00 1.918010000000000113e-07
7.959999999999999964e+00 1.875950000000000066e-07
7.980000000000000426e+00 1.834749999999999935e-07
8.000000000000000000e+00 1.794379999999999952e-07
8.019999999999999574e+00 1.754850000000000126e-07
8.039999999999999147e+00 1.716119999999999885e-07
8.060000000000000497e+00 1.678200000000000032e-07
8.080000000000000071e+00 1.641070000000000017e-07
8.099999999999999645e+00 1.604710000000000080e-07
8.119999999999999218e+00 1.569109999999999947e-07
8.140000000000000568e+00 1.534259999999999870e-07
8.160000000000000142e+00 1.500140000000000091e-07
8.179999999999999716e+00 1.466740000000000070e-07
8.199999999999999289e+00 1.434060000000000071e-07
8.220000000000000639e+00 1.402070000000000060e-07
8.240000000000000213e+00 1.370760000000000027e-07
8.259999999999999787e+00 1.340119999999999959e-07
8.279999999999999361e+00 1.310140000000000110e-07
8.300000000000000711e+00 1.280809999999999939e-07
8.320000000000000284e+00 1.252109999999999954e-07
8.339999999999999858e+00 1.224029999999999877e-07
8.359999999999999432e+00 1.196559999999999963e-07
8.380000000000000782e+00 1.169680000000000055e-07
8.400000000000000355e+00 1.143390000000000023e-07
8.419999999999999929e+00 1.117679999999999987e-07
8.439999999999999503e+00 1.092530000000000056e-07
8.460000000000000853e+00 1.067919999999999944e-07
8.480000000000000426e+00 1.043860000000000058e-07
8.500000000000000000e+00 1.020329999999999979e-07
