# log10(T) rate(cm^3/s)
# ColRates
3.500000000000000000e+00 4.393300000000000222e-20
3.520000000000000018e+00 1.595939999999999941e-19
3.540000000000000036e+00 5.474910000000000360e-19
3.560000000000000053e+00 1.778270000000000014e-18
3.580000000000000071e+00 5.482199999999999995e-18
3.600000000000000089e+00 1.607930000000000041e-17
3.620000000000000107e+00 4.496880000000000064e-17
3.640000000000000124e+00 1.201780000000000026e-16
3.660000000000000142e+00 3.075340000000000093e-16
3.680000000000000160e+00 7.550400000000000376e-16
3.700000000000000178e+00 1.781830000000000004e-15
3.720000000000000195e+00 4.049100000000000261e-15
3.740000000000000213e+00 8.875330000000000589e-15
3.759999999999999787e+00 1.878169999999999988e-14
3.779999999999999805e+00 3.837180000000000241e-14
3.799999999999999822e+00 7.602969999999999611e-14
3.819999999999999840e+00 1.462859999999999888e-13
3.839999999999999858e+00 2.736350000000000250e-13
3.859999999999999876e+00 4.982189999999999999e-13
3.879999999999999893e+00 8.839509999999999561e-13
3.899999999999999911e+00 1.529969999999999993e-12
3.919999999999999929e+00 2.586070000000000107e-12
3.939999999999999947e+00 4.273150000000000225e-12
3.959999999999999964e+00 6.768629999999999604e-12
3.979999999999999982e+00 1.047180000000000068e-11
4.000000000000000000e+00 1.597450000000000065e-11
4.019999999999999574e+00 2.402269999999999941e-11
4.040000000000000036e+00 3.560390000000000099e-11
4.059999999999999609e+00 5.199949999999999709e-11
4.080000000000000071e+00 7.484230000000000634e-11
4.099999999999999645e+00 1.061669999999999938e-10
4.120000000000000107e+00 1.484619999999999884e-10
4.139999999999999680e+00 2.047160000000000094e-10
4.160000000000000142e+00 2.784440000000000054e-10
4.179999999999999716e+00 3.737209999999999857e-10
4.200000000000000178e+00 4.951859999999999897e-10
4.219999999999999751e+00 6.480309999999999928e-10
4.240000000000000213e+00 8.379629999999999941e-10
4.259999999999999787e+00 1.071160000000000052e-09
4.280000000000000249e+00 1.354269999999999915e-09
4.299999999999999822e+00 1.694180000000000037e-09
4.320000000000000284e+00 2.098130000000000074e-09
4.339999999999999858e+00 2.573380000000000062e-09
4.360000000000000320e+00 3.127310000000000029e-09
4.379999999999999893e+00 3.767199999999999978e-09
4.400000000000000355e+00 4.500049999999999985e-09
4.419999999999999929e+00 5.332569999999999919e-09
4.440000000000000391e+00 6.271140000000000329e-09
4.459999999999999964e+00 7.321419999999999725e-09
4.480000000000000426e+00 8.488600000000000651e-09
4.500000000000000000e+00 9.777099999999999252e-09
4.519999999999999574e+00 1.119060000000000063e-08
4.540000000000000036e+00 1.273190000000000067e-08
4.559999999999999609e+00 1.440300000000000000e-08
4.580000000000000071e+00 1.620489999999999974e-08
4.599999999999999645e+00 1.813790000000000123e-08
4.620000000000000107e+00 2.020109999999999882e-08
4.639999999999999680e+00 2.239289999999999864e-08
4.660000000000000142e+00 2.471099999999999873e-08
4.679999999999999716e+00 2.715179999999999965e-08
4.700000000000000178e+00 2.971109999999999928e-08
4.719999999999999751e+00 3.238400000000000067e-08
4.740000000000000213e+00 3.516499999999999758e-08
4.769999999999999574e+00 3.804770000000000128e-08
4.790000000000000036e+00 4.102520000000000263e-08
4.809999999999999609e+00 4.409009999999999853e-08
4.830000000000000071e+00 4.723470000000000275e-08
4.849999999999999645e+00 5.045070000000000322e-08
4.870000000000000107e+00 5.372970000000000234e-08
4.889999999999999680e+00 5.706309999999999830e-08
4.910000000000000142e+00 6.044209999999999831e-08
4.929999999999999716e+00 6.385789999999999638e-08
4.950000000000000178e+00 6.730159999999999432e-08
4.969999999999999751e+00 7.076480000000000114e-08
4.990000000000000213e+00 7.423890000000000179e-08
5.009999999999999787e+00 7.771559999999999744e-08
5.030000000000000249e+00 8.118730000000000067e-08
5.049999999999999822e+00 8.464609999999999455e-08
5.070000000000000284e+00 8.808510000000000305e-08
5.089999999999999858e+00 9.149739999999999715e-08
5.110000000000000320e+00 9.487679999999999894e-08
5.129999999999999893e+00 9.821760000000000461e-08
5.150000000000000355e+00 1.015140000000000049e-07
5.169999999999999929e+00 1.047619999999999954e-07
5.190000000000000391e+00 1.079570000000000051e-07
5.209999999999999964e+00 1.110940000000000020e-07
5.230000000000000426e+00 1.141699999999999960e-07
5.250000000000000000e+00 1.171819999999999967e-07
5.269999999999999574e+00 1.201280000000000021e-07
5.290000000000000036e+00 1.230040000000000074e-07
5.309999999999999609e+00 1.258090000000000117e-07
5.330000000000000071e+00 1.285410000000000126e-07
5.349999999999999645e+00 1.311970000000000068e-07
5.370000000000000107e+00 1.337779999999999953e-07
5.389999999999999680e+00 1.362800000000000001e-07
5.410000000000000142e+00 1.387039999999999958e-07
5.429999999999999716e+00 1.410480000000000068e-07
5.450000000000000178e+00 1.433110000000000052e-07
5.469999999999999751e+00 1.454929999999999913e-07
5.490000000000000213e+00 1.475929999999999903e-07
5.509999999999999787e+00 1.496089999999999998e-07
5.530000000000000249e+00 1.515419999999999947e-07
5.549999999999999822e+00 1.533910000000000002e-07
5.570000000000000284e+00 1.551549999999999887e-07
5.589999999999999858e+00 1.568330000000000121e-07
5.610000000000000320e+00 1.584259999999999920e-07
5.629999999999999893e+00 1.599330000000000068e-07
5.650000000000000355e+00 1.613530000000000023e-07
5.669999999999999929e+00 1.626860000000000050e-07
5.690000000000000391e+00 1.639319999999999885e-07
5.709999999999999964e+00 1.650910000000000057e-07
5.730000000000000426e+00 1.661620000000000025e-07
5.750000000000000000e+00 1.671460000000000066e-07
5.769999999999999574e+00 1.680419999999999903e-07
5.790000000000000036e+00 1.688510000000000076e-07
5.809999999999999609e+00 1.695720000000000046e-07
5.830000000000000071e+00 1.702070000000000100e-07
5.849999999999999645e+00 1.707549999999999961e-07
5.870000000000000107e+00 1.712179999999999917e-07
5.889999999999999680e+00 1.715949999999999957e-07
5.910000000000000142e+00 1.718880000000000103e-07
5.929999999999999716e+00 1.720980000000000102e-07
5.950000000000000178e+00 1.722259999999999965e-07
5.969999999999999751e+00 1.722719999999999957e-07
5.990000000000000213e+00 1.722390000000000112e-07
6.009999999999999787e+00 1.721269999999999901e-07
6.030000000000000249e+00 1.719370000000000129e-07
6.049999999999999822e+00 1.716730000000000047e-07
6.070000000000000284e+00 1.713349999999999920e-07
6.089999999999999858e+00 1.709240000000000024e-07
6.110000000000000320e+00 1.704439999999999875e-07
6.129999999999999893e+00 1.698950000000000003e-07
6.150000000000000355e+00 1.692799999999999912e-07
6.169999999999999929e+00 1.686009999999999888e-07
6.190000000000000391e+00 1.678599999999999956e-07
6.209999999999999964e+00 1.670580000000000127e-07
6.230000000000000426e+00 1.661989999999999916e-07
6.250000000000000000e+00 1.652840000000000128e-07
6.269999999999999574e+00 1.643149999999999993e-07
6.290000000000000036e+00 1.632950000000000074e-07
6.309999999999999609e+00 1.622260000000000128e-07
6.330000000000000071e+00 1.611089999999999903e-07
6.349999999999999645e+00 1.599479999999999973e-07
6.370000000000000107e+00 1.587440000000000085e-07
6.389999999999999680e+00 1.574989999999999997e-07
6.410000000000000142e+00 1.562160000000000007e-07
6.429999999999999716e+00 1.548960000000000127e-07
6.450000000000000178e+00 1.535420000000000126e-07
6.469999999999999751e+00 1.521550000000000016e-07
6.490000000000000213e+00 1.507380000000000095e-07
6.509999999999999787e+00 1.492920000000000110e-07
6.530000000000000249e+00 1.478190000000000083e-07
6.549999999999999822e+00 1.463210000000000037e-07
6.570000000000000284e+00 1.447999999999999996e-07
6.589999999999999858e+00 1.432579999999999981e-07
6.610000000000000320e+00 1.416949999999999992e-07
6.629999999999999893e+00 1.401150000000000076e-07
6.650000000000000355e+00 1.385179999999999967e-07
6.669999999999999929e+00 1.369059999999999952e-07
6.690000000000000391e+00 1.352800000000000043e-07
6.709999999999999964e+00 1.336419999999999999e-07
6.730000000000000426e+00 1.319930000000000094e-07
6.750000000000000000e+00 1.303350000000000087e-07
6.769999999999999574e+00 1.286700000000000001e-07
6.790000000000000036e+00 1.269970000000000089e-07
6.809999999999999609e+00 1.253190000000000120e-07
6.830000000000000071e+00 1.236370000000000105e-07
6.849999999999999645e+00 1.219520000000000057e-07
6.870000000000000107e+00 1.202649999999999986e-07
6.889999999999999680e+00 1.185780000000000047e-07
6.910000000000000142e+00 1.168909999999999976e-07
6.929999999999999716e+00 1.152050000000000049e-07
6.950000000000000178e+00 1.135220000000000023e-07
6.969999999999999751e+00 1.118420000000000032e-07
6.990000000000000213e+00 1.101659999999999953e-07
7.009999999999999787e+00 1.084959999999999943e-07
7.030000000000000249e+00 1.068309999999999989e-07
7.049999999999999822e+00 1.051739999999999993e-07
7.070000000000000284e+00 1.035239999999999945e-07
7.089999999999999858e+00 1.018829999999999998e-07
7.110000000000000320e+00 1.002510000000000022e-07
7.129999999999999893e+00 9.862959999999999533e-08
7.150000000000000355e+00 9.701839999999999742e-08
7.169999999999999929e+00 9.541850000000000173e-08
7.190000000000000391e+00 9.383039999999999560e-08
7.209999999999999964e+00 9.225480000000000365e-08
7.230000000000000426e+00 9.069209999999999456e-08
7.259999999999999787e+00 8.914290000000000078e-08
7.280000000000000249e+00 8.760780000000000181e-08
7.299999999999999822e+00 8.608699999999999523e-08
7.320000000000000284e+00 8.458090000000000268e-08
7.339999999999999858e+00 8.309010000000000365e-08
7.360000000000000320e+00 8.161479999999999573e-08
7.379999999999999893e+00 8.015540000000000054e-08
7.400000000000000355e+00 7.871210000000000243e-08
7.419999999999999929e+00 7.728520000000000439e-08
7.440000000000000391e+00 7.587499999999999617e-08
7.459999999999999964e+00 7.448170000000000182e-08
7.480000000000000426e+00 7.310540000000000027e-08
7.500000000000000000e+00 7.174639999999999452e-08
7.519999999999999574e+00 7.040469999999999780e-08
7.540000000000000036e+00 6.908059999999999986e-08
7.559999999999999609e+00 6.777399999999999530e-08
7.580000000000000071e+00 6.648520000000000033e-08
7.599999999999999645e+00 6.521400000000000414e-08
7.620000000000000107e+00 6.396069999999999648e-08
7.639999999999999680e+00 6.272519999999999842e-08
7.660000000000000142e+00 6.150760000000000213e-08
7.679999999999999716e+00 6.030780000000000220e-08
7.700000000000000178e+00 5.912579999999999863e-08
7.719999999999999751e+00 5.796169999999999683e-08
7.740000000000000213e+00 5.681529999999999921e-08
7.759999999999999787e+00 5.568659999999999917e-08
7.780000000000000249e+00 5.457559999999999670e-08
7.799999999999999822e+00 5.348219999999999963e-08
7.820000000000000284e+00 5.240630000000000255e-08
7.839999999999999858e+00 5.134780000000000005e-08
7.860000000000000320e+00 5.030659999999999997e-08
7.879999999999999893e+00 4.928259999999999689e-08
7.900000000000000355e+00 4.827569999999999864e-08
7.919999999999999929e+00 4.728579999999999981e-08
7.940000000000000391e+00 4.631280000000000162e-08
7.959999999999999964e+00 4.535640000000000108e-08
7.980000000000000426e+00 4.441669999999999697e-08
8.000000000000000000e+00 4.349339999999999955e-08
8.019999999999999574e+00 4.258629999999999800e-08
8.039999999999999147e+00 4.169539999999999893e-08
8.060000000000000497e+00 4.082049999999999816e-08
8.080000000000000071e+00 3.996139999999999810e-08
8.099999999999999645e+00 3.911799999999999995e-08
8.119999999999999218e+00 3.829009999999999953e-08
8.140000000000000568e+00 3.747740000000000047e-08
8.160000000000000142e+00 3.667990000000000276e-08
8.179999999999999716e+00 3.589729999999999680e-08
8.199999999999999289e+00 3.512949999999999703e-08
8.220000000000000639e+00 3.437629999999999926e-08
8.240000000000000213e+00 3.363749999999999929e-08
8.259999999999999787e+00 3.291299999999999832e-08
8.279999999999999361e+00 3.220250000000000000e-08
8.300000000000000711e+00 3.150580000000000012e-08
8.320000000000000284e+00 3.082270000000000111e-08
8.339999999999999858e+00 3.015309999999999755e-08
8.359999999999999432e+00 2.949679999999999848e-08
8.380000000000000782e+00 2.885359999999999971e-08
8.400000000000000355e+00 2.822330000000000034e-08
8.419999999999999929e+00 2.760560000000000071e-08
8.439999999999999503e+00 2.700039999999999870e-08
8.460000000000000853e+00 2.640750000000000006e-08
8.480000000000000426e+00 2.582670000000000057e-08
8.500000000000000000e+00 2.525779999999999936e-08
